Raw Channel One;Raw Channel Two;Raw Channel Three;Raw Channel Four;Raw Channel Z;Raw EMG;Raw EMG Reference;Raw Ground One;Raw Ground Two;Raw Blink Channel;Timestamp;Movement;Threshold
14843942;3014946;8116818;12880851;-5040693;859403;-9367514;0;0;-3102493;613750;0;9975
14850904;3017855;8120490;12887288;-5046988;1187467;-9470750;0;0;-3096580;613752;0;9975
14858581;3022051;8127881;12895967;-5051231;1447963;-9408093;0;0;-3091431;613754;0;9975
14854671;3019333;8126212;12892676;-5055094;1573467;-9456349;0;0;-3095627;613756;0;9975
14845325;3014612;8121491;12880756;-5053520;1468801;-9472180;0;0;-3109169;613758;0;9975
14835502;3006124;8114815;12866927;-5053282;1200342;-9381629;0;0;-3125381;613760;0;9975
14833022;3004980;8115674;12865735;-5048037;882148;-9312392;0;0;-3131342;613762;0;9975
14833833;3006029;8115674;12866450;-5042219;607490;-9343577;0;0;-3133631;613764;0;9975
14835216;3008270;8114672;12867166;-5036402;464439;-9382487;0;0;-3130054;613766;0;9975
14839031;3011799;8116246;12873794;-5038023;587844;-9365369;0;0;-3120327;613768;0;9975
14846231;3017568;8123351;12883092;-5039740;884342;-9362603;0;0;-3107166;613770;0;9975
14848663;3016376;8123780;12885381;-5047941;1194000;-9392214;0;0;-3101063;613772;0;9975
14849950;3016615;8121586;12887622;-5057192;1440859;-9385873;0;0;-3099108;613774;0;9975
14847423;3015423;8119297;12885858;-5062533;1589012;-9410954;0;0;-3101015;613776;0;9975
14845182;3013468;8121682;12878467;-5055285;1466846;-9456683;0;0;-3108835;613778;0;9975
14841701;3009844;8120490;12869025;-5045223;1180219;-9399319;0;0;-3118944;613780;0;9975
14841558;3012323;8121682;12867881;-5035114;860977;-9384967;0;0;-3122139;613782;0;9975
14839221;3012609;8122397;12866880;-5030203;599908;-9372330;0;0;-3125906;613784;0;9975
14836599;3010654;8119202;12864781;-5027390;470209;-9334088;0;0;-3125810;613786;0;9975
14839317;3010893;8116198;12867642;-5031395;584983;-9342051;0;0;-3117990;613788;0;9975
14843370;3012276;8117199;12873984;-5035257;876951;-9414483;0;0;-3106546;613790;0;9975
14845563;3011894;8117915;12880612;-5045557;1208114;-9420348;0;0;-3101158;613792;0;9975
14848615;3013086;8120251;12883617;-5053187;1465416;-9391595;0;0;-3096866;613794;0;9975
14845992;3009748;8118344;12878848;-5059099;1595449;-9367562;0;0;-3102732;613796;0;9975
14831449;2999353;8106614;12863113;-5062151;1487350;-9349061;0;0;-3123188;613798;0;9975
14827968;2997589;8106852;12857486;-5053997;1188087;-9373522;0;0;-3133106;613800;0;9975
14838411;3007173;8117533;12863160;-5037356;868034;-9361935;0;0;-3126669;613802;0;9975
14836551;3007698;8117533;12861014;-5031967;618457;-9328080;0;0;-3126955;613804;0;9975
14833881;3007030;8115197;12860013;-5027771;493288;-9298993;0;0;-3125906;613806;0;9975
14836932;3006840;8114434;12863256;-5031586;598573;-9342623;0;0;-3119707;613808;0;9975
14839126;3005934;8113194;12867166;-5042029;883722;-9399176;0;0;-3111219;613810;0;9975
14843799;3008079;8115435;12876178;-5047846;1210928;-9394980;0;0;-3103924;613812;0;9975
14843751;3005838;8114100;12875749;-5057812;1477766;-9361792;0;0;-3106165;613814;0;9975
14841319;3002834;8113337;12871457;-5062485;1619625;-9328175;0;0;-3112984;613816;0;9975
14840652;3005075;8115578;12869502;-5054760;1502943;-9276248;0;0;-3118563;613818;0;9975
14840223;3006887;8117629;12865592;-5042124;1219797;-9286357;0;0;-3121710;613820;0;9975
14835025;3002596;8114291;12860347;-5036783;880909;-9318686;0;0;-3130388;613822;0;9975
14834119;3001594;8113051;12856628;-5035114;611686;-9365750;0;0;-3134394;613824;0;9975
14832784;3001165;8111287;12855340;-5032110;464725;-9366799;0;0;-3132534;613826;0;9975
14834358;3003597;8109999;12859965;-5034781;560522;-9447385;0;0;-3124285;613828;0;9975
14836694;3005218;8107806;12866212;-5040312;856590;-9460974;0;0;-3116894;613830;0;9975
14841224;3007555;8111620;12874557;-5048657;1191282;-9430218;0;0;-3113842;613832;0;9975
14846708;3011370;8116770;12881471;-5054331;1461792;-9392596;0;0;-3111029;613834;0;9975
14845039;3010034;8114958;12879182;-5056286;1604271;-9336472;0;0;-3114557;613836;0;9975
14842798;3012228;8117390;12876893;-5048847;1468753;-9391881;0;0;-3121757;613838;0;9975
14840652;3013420;8118821;12871457;-5038452;1178884;-9402371;0;0;-3128815;613840;0;9975
14838125;3010654;8117581;12865687;-5034590;870132;-9340525;0;0;-3134680;613842;0;9975
14834548;3008509;8115483;12862683;-5033016;600862;-9346581;0;0;-3139114;613844;0;9975
14834167;3009748;8113194;12864829;-5028677;472736;-9335328;0;0;-3137064;613846;0;9975
14839794;3013182;8115817;12872745;-5028916;598859;-9326268;0;0;-3124428;613848;0;9975
14852191;3021860;8123875;12886716;-5028391;881576;-9381009;0;0;-3106069;613850;0;9975
14857484;3023815;8126164;12891723;-5033255;1182174;-9433175;0;0;-3096342;613852;0;9975
14856149;3023434;8123780;12891008;-5042648;1454115;-9393979;0;0;-3097057;613854;0;9975
14853765;3023052;8123112;12890149;-5048895;1596021;-9383059;0;0;-3103781;613856;0;9975
14848329;3020191;8123780;12882186;-5045462;1468372;-9400654;0;0;-3114796;613858;0;9975
14844276;3016233;8123160;12873651;-5035925;1171255;-9314109;0;0;-3123331;613860;0;9975
14838601;3011942;8119584;12865211;-5032873;858211;-9324647;0;0;-3133154;613862;0;9975
14837076;3010702;8117533;12864305;-5029488;600338;-9298850;0;0;-3136110;613864;0;9975
14845325;3020716;8126307;12875129;-5016613;494766;-9214497;0;0;-3125334;613866;0;9975
14851571;3026676;8128453;12885953;-5014515;633382;-9183932;0;0;-3112268;613868;0;9975
14851333;3024340;8124257;12886573;-5025101;897741;-9341765;0;0;-3105831;613870;0;9975
14855911;3024769;8128357;12891008;-5033589;1185560;-9435368;0;0;-3098822;613872;0;9975
14862253;3029632;8132506;12899686;-5035782;1446914;-9434033;0;0;-3092098;613874;0;9975
14863063;3029585;8132935;12898017;-5039406;1590967;-9353591;0;0;-3093433;613876;0;9975
14853813;3022623;8128071;12883903;-5039454;1465273;-9345580;0;0;-3107405;613878;0;9975
14844610;3017568;8122969;12871362;-5034351;1182747;-9387017;0;0;-3121996;613880;0;9975
14842750;3016758;8122445;12868978;-5026293;858306;-9356070;0;0;-3126812;613882;0;9975
14844133;3016996;8123446;12869168;-5020762;570440;-9396601;0;0;-3127909;613884;0;9975
14843084;3016376;8121300;12868215;-5014753;451660;-9440518;0;0;-3125286;613886;0;9975
14841892;3013372;8117390;12869311;-5022335;542402;-9512139;0;0;-3121137;613888;0;9975
14843227;3012800;8116103;12872935;-5032253;831794;-9463025;0;0;-3112888;613890;0;9975
14848377;3013992;8119250;12877990;-5039787;1160383;-9459448;0;0;-3104401;613892;0;9975
14853622;3017139;8123923;12883664;-5043697;1428079;-9433604;0;0;-3098631;613894;0;9975
14854099;3019047;8126784;12885715;-5043459;1563215;-9401894;0;0;-3098059;613896;0;9975
14849759;3017711;8124161;12878133;-5037594;1443052;-9408188;0;0;-3106832;613898;0;9975
14850856;3022814;8126879;12877132;-5023050;1153516;-9420586;0;0;-3113270;613900;0;9975
14846946;3021908;8126975;12873555;-5016518;829410;-9399462;0;0;-3118801;613902;0;9975
14842655;3018188;8121920;12867929;-5015802;579738;-9379721;0;0;-3124857;613904;0;9975
14846851;3022623;8122874;12872268;-5009270;476360;-9308959;0;0;-3118706;613906;0;9975
14856197;3031635;8129502;12885047;-5005741;616264;-9266568;0;0;-3103924;613908;0;9975
14859630;3034258;8129597;12890626;-5011511;891161;-9320069;0;0;-3094959;613910;0;9975
14861728;3032970;8131409;12893725;-5020428;1180315;-9452725;0;0;-3090048;613912;0;9975
14861156;3028202;8130980;12893487;-5031300;1437711;-9451962;0;0;-3093052;613914;0;9975
14856864;3025818;8127261;12889911;-5039549;1572942;-9443141;0;0;-3098678;613916;0;9975
14851858;3024244;8126259;12881375;-5034161;1454544;-9443904;0;0;-3108597;613918;0;9975
14844800;3017139;8122206;12871648;-5029011;1160812;-9392453;0;0;-3119659;613920;0;9975
14838077;3013563;8118439;12864305;-5025911;835466;-9378005;0;0;-3127432;613922;0;9975
14839603;3013801;8120060;12864019;-5021381;569343;-9373809;0;0;-3128576;613924;0;9975
14844228;3017378;8121682;12868644;-5012512;448370;-9356547;0;0;-3121662;613926;0;9975
14848996;3020620;8123780;12876464;-5014467;569725;-9377957;0;0;-3111791;613928;0;9975
14853193;3022432;8124924;12882615;-5020332;880336;-9381009;0;0;-3103733;613930;0;9975
14853383;3021908;8122349;12885619;-5031395;1213455;-9361792;0;0;-3101444;613932;0;9975
14859821;3026962;8129073;12893630;-5034113;1475620;-9347058;0;0;-3095960;613934;0;9975
14860488;3028059;8133173;12895156;-5035448;1581812;-9415007;0;0;-3100300;613936;0;9975
14857103;3026533;8132649;12887431;-5030346;1447534;-9449435;0;0;-3110599;613938;0;9975
14847280;3021431;8126641;12876893;-5024862;1162719;-9380198;0;0;-3123903;613940;0;9975
14842893;3017378;8123875;12873078;-5022240;843143;-9326983;0;0;-3133106;613942;0;9975
14843894;3021288;8125210;12874747;-5015421;597906;-9300233;0;0;-3132820;613944;0;9975
14847232;3025770;8127499;12879420;-5009317;477361;-9249640;0;0;-3126669;613946;0;9975
14855529;3032112;8130837;12891627;-5007696;598812;-9313775;0;0;-3110838;613948;0;9975
14861966;3036690;8135033;12899591;-5009985;883007;-9414530;0;0;-3098822;613950;0;9975
14862920;3036785;8135462;12901498;-5020762;1189088;-9436513;0;0;-3094053;613952;0;9975
14857484;3030443;8130599;12896920;-5034781;1441669;-9428597;0;0;-3095198;613954;0;9975
14852620;3027630;8126975;12893392;-5041313;1567125;-9431458;0;0;-3102350;613956;0;9975
14853145;3029442;8130742;12890674;-5033159;1457977;-9381152;0;0;-3109503;613958;0;9975
14849950;3027344;8130360;12883426;-5025148;1182937;-9311486;0;0;-3120899;613960;0;9975
14842607;3018665;8124257;12873460;-5023909;875854;-9255076;0;0;-3133392;613962;0;9975
14837934;3014612;8120490;12869073;-5024052;626039;-9204293;0;0;-3138780;613964;0;9975
14839603;3017330;8121300;12872220;-5017996;490188;-9233142;0;0;-3131056;613966;0;9975
14845849;3020668;8122397;12878419;-5016327;604057;-9302807;0;0;-3116989;613968;0;9975
14849473;3023052;8125353;12886573;-5022001;893879;-9390546;0;0;-3105450;613970;0;9975
14853431;3023290;8126927;12890245;-5031824;1243734;-9354211;0;0;-3100681;613972;0;9975
14856721;3023767;8129263;12893487;-5037928;1464510;-9378529;0;0;-3098917;613974;0;9975
14859821;3028345;8130837;12896443;-5037832;1566457;-9433795;0;0;-3103065;613976;0;9975
14854862;3026962;8130742;12887288;-5031824;1441908;-9460402;0;0;-3117895;613978;0;9975
14853908;3028011;8132458;12881900;-5019903;1164484;-9397841;0;0;-3125954;613980;0;9975
14853050;3028154;8132267;12881852;-5013418;860548;-9328318;0;0;-3129196;613982;0;9975
14850904;3026533;8129502;12878371;-5011892;613880;-9299613;0;0;-3126907;613984;0;9975
14849855;3027487;8127070;12879802;-5006123;498199;-9290028;0;0;-3118753;613986;0;9975
14853669;3030062;8127499;12887193;-5008364;622224;-9321976;0;0;-3107118;613988;0;9975
14855911;3029775;8126355;12891484;-5017567;918293;-9356118;0;0;-3098822;613990;0;9975
14858295;3030348;8127022;12894488;-5024767;1235866;-9374810;0;0;-3092241;613992;0;9975
14853574;3024959;8123398;12891961;-5037403;1503515;-9320593;0;0;-3094005;613994;0;9975
14849473;3023577;8120203;12889529;-5043745;1675319;-9216262;0;0;-3099394;613996;0;9975
14846469;3023767;8119202;12884236;-5038548;1568699;-9148408;0;0;-3110695;613998;0;9975
14842941;3021765;8117486;12875701;-5030203;1207924;-9186125;0;0;-3120851;614000;0;9975
14839364;3018570;8117247;12872077;-5023766;859594;-9321309;0;0;-3125143;614002;0;9975
14839603;3017759;8117819;12871696;-5019283;610780;-9388352;0;0;-3124332;614004;0;9975
14839746;3021955;8115769;12873746;-5014038;512123;-9262038;0;0;-3119326;614006;0;9975
14843656;3026628;8116818;12881471;-5016613;631284;-9252406;0;0;-3107977;614008;0;9975
14844085;3025389;8113814;12884999;-5025435;904226;-9433365;0;0;-3101635;614010;0;9975
14844037;3021908;8112002;12886716;-5037403;1238775;-9440756;0;0;-3100729;614012;0;9975
14850379;3025389;8117867;12894202;-5041790;1489401;-9471751;0;0;-3093672;614014;0;9975
14855720;3031397;8124638;12898112;-5038452;1609230;-9467793;0;0;-3090429;614016;0;9975
14848138;3027868;8121062;12888814;-5037785;1477623;-9405614;0;0;-3106546;614018;0;9975
14841939;3021955;8119393;12878848;-5030632;1168775;-9427310;0;0;-3118896;614020;0;9975
14841796;3022575;8120394;12876178;-5022097;846195;-9408188;0;0;-3121233;614022;0;9975
14840747;3021908;8120251;12874986;-5017948;608348;-9322358;0;0;-3121567;614024;0;9975
14839078;3021431;8116150;12872649;-5015802;505304;-9297133;0;0;-3120088;614026;0;9975
14846231;3027010;8119965;12884093;-5016422;609064;-9314776;0;0;-3109598;614028;0;9975
14850522;3031969;8122206;12894584;-5019856;898790;-9397269;0;0;-3098202;614030;0;9975
14853860;3032160;8122492;12897206;-5027866;1225376;-9410096;0;0;-3090715;614032;0;9975
14858152;3032398;8127165;12902881;-5034065;1482153;-9380532;0;0;-3087711;614034;0;9975
14862443;3036928;8134127;12903596;-5031967;1617574;-9352399;0;0;-3087568;614036;0;9975
14859630;3036499;8134127;12897016;-5023527;1489687;-9320117;0;0;-3097772;614038;0;9975
14850999;3029919;8129120;12886716;-5019760;1166248;-9355689;0;0;-3114271;614040;0;9975
14846422;3025579;8125401;12879802;-5015707;825786;-9396601;0;0;-3122043;614042;0;9975
14843656;3024387;8122683;12876559;-5012798;577354;-9370995;0;0;-3124761;614044;0;9975
14842702;3024244;8121062;12876893;-5011654;458288;-9345151;0;0;-3125000;614046;0;9975
14849473;3027487;8123684;12884284;-5013323;590419;-9344912;0;0;-3114891;614048;0;9975
14855577;3030014;8126641;12891818;-5016947;888300;-9395075;0;0;-3102159;614050;0;9975
14860870;3032970;8128691;12897874;-5022001;1204395;-9433127;0;0;-3094911;614052;0;9975
14862491;3032637;8130026;12899924;-5030584;1443910;-9407807;0;0;-3096151;614054;0;9975
14858676;3028345;8128930;12896396;-5037022;1571655;-9406186;0;0;-3101778;614056;0;9975
14854003;3027963;8128787;12888290;-5030108;1452255;-9358836;0;0;-3108454;614058;0;9975
14848520;3026771;8126641;12882186;-5020380;1143503;-9349061;0;0;-3117847;614060;0;9975
14846612;3027582;8127642;12882234;-5013704;814533;-9369803;0;0;-3122520;614062;0;9975
14851047;3033304;8131743;12884332;-5004740;571203;-9346438;0;0;-3120279;614064;0;9975
14849569;3031540;8129931;12882901;-5001354;448751;-9324408;0;0;-3120184;614066;0;9975
14848758;3026247;8125973;12883140;-5009937;574207;-9338284;0;0;-3114176;614068;0;9975
14850189;3025007;8122635;12885524;-5019474;873756;-9389449;0;0;-3107214;614070;0;9975
14852334;3025484;8123112;12888862;-5028391;1182842;-9435416;0;0;-3102112;614072;0;9975
14854099;3024006;8124400;12889911;-5035496;1429701;-9452487;0;0;-3099871;614074;0;9975
14850713;3020382;8123541;12886191;-5039930;1552248;-9449149;0;0;-3106975;614076;0;9975
14844896;3017378;8121634;12879087;-5037975;1420688;-9415103;0;0;-3120422;614078;0;9975
14841844;3019142;8122159;12874414;-5028248;1134204;-9357167;0;0;-3128099;614080;0;9975
14847661;3024292;8127928;12877751;-5013323;833654;-9313775;0;0;-3124618;614082;0;9975
14849759;3028345;8131314;12880183;-5005694;578641;-9318400;0;0;-3122282;614084;0;9975
14851905;3032732;8132697;12884046;-4999876;457000;-9322644;0;0;-3117180;614086;0;9975
14854623;3033304;8132029;12888623;-5004644;582552;-9361363;0;0;-3109169;614088;0;9975
14857055;3033590;8128882;12891103;-5010796;893974;-9380437;0;0;-3102159;614090;0;9975
14855529;3028679;8124781;12892247;-5024529;1212549;-9388257;0;0;-3103590;614092;0;9975
14856578;3026295;8127499;12892724;-5035353;1465940;-9375144;0;0;-3104544;614094;0;9975
14854814;3025913;8128691;12891484;-5037594;1593208;-9340382;0;0;-3111076;614096;0;9975
14851047;3026104;8127642;12885047;-5031920;1466226;-9274197;0;0;-3122139;614098;0;9975
14847995;3025627;8127404;12877704;-5021858;1162719;-9318400;0;0;-3130579;614100;0;9975
14840604;3018188;8121253;12869550;-5021286;834512;-9333611;0;0;-3137064;614102;0;9975
14836932;3014564;8119059;12866403;-5021381;583982;-9284068;0;0;-3139448;614104;0;9975
14840223;3019476;8121682;12872029;-5014324;466108;-9314681;0;0;-3134966;614106;0;9975
14849807;3027630;8125830;12884999;-5012226;601196;-9341288;0;0;-3121567;614108;0;9975
14857150;3033352;8129502;12895585;-5012703;881576;-9379292;0;0;-3107500;614110;0;9975
14856340;3027582;8127738;12893153;-5025816;1181173;-9420729;0;0;-3106308;614112;0;9975
14858581;3026962;8130217;12895108;-5034065;1422929;-9465647;0;0;-3104544;614114;0;9975
14861776;3030920;8133364;12896777;-5031586;1585483;-9392501;0;0;-3105116;614116;0;9975
14854909;3026867;8131218;12887193;-5028820;1480341;-9274912;0;0;-3117037;614118;0;9975
14846183;3020906;8126545;12874414;-5025530;1169204;-9225512;0;0;-3130722;614120;0;9975
14841415;3018427;8122159;12869264;-5020428;822115;-9365130;0;0;-3135443;614122;0;9975
14840127;3017235;8121253;12869025;-5017758;564336;-9412099;0;0;-3138494;614124;0;9975
14841987;3018761;8123351;12869407;-5012894;465679;-9310341;0;0;-3134727;614126;0;9975
14846612;3020525;8123780;12875796;-5016041;599765;-9410811;0;0;-3124809;614128;0;9975
14850665;3022957;8124638;12882758;-5023527;908899;-9468556;0;0;-3115845;614130;0;9975
14851858;3021431;8123541;12884999;-5034065;1236105;-9474135;0;0;-3113127;614132;0;9975
14853669;3021908;8125401;12888242;-5040407;1475095;-9433222;0;0;-3109646;614134;0;9975
14857913;3026199;8131791;12891627;-5037499;1594352;-9447432;0;0;-3107643;614136;0;9975
14847614;3020429;8126021;12878038;-5035257;1463318;-9445096;0;0;-3121948;614138;0;9975
14837457;3013325;8118010;12865926;-5032158;1179552;-9317923;0;0;-3136825;614140;0;9975
14838315;3014612;8119822;12864162;-5023337;894117;-9208060;0;0;-3139067;614142;0;9975
14839555;3016043;8122397;12862254;-5017471;656700;-9193564;0;0;-3140020;614144;0;9975
14837362;3014898;8119297;12861682;-5015230;508642;-9289265;0;0;-3139830;614146;0;9975
14838983;3013611;8117819;12865163;-5020952;603818;-9441376;0;0;-3131103;614148;0;9975
14844037;3014517;8119965;12871982;-5026293;902414;-9455872;0;0;-3119755;614150;0;9975
14851142;3019523;8125496;12880756;-5029726;1208448;-9459592;0;0;-3111935;614152;0;9975
14850427;3017473;8122397;12880708;-5040407;1455450;-9444285;0;0;-3114653;614154;0;9975
14848996;3016710;8121968;12877799;-5044651;1581382;-9422684;0;0;-3120279;614156;0;9975
14838268;3011513;8116627;12867213;-5042839;1447582;-9394742;0;0;-3133011;614158;0;9975
14836885;3011656;8118058;12862350;-5032253;1180219;-9313203;0;0;-3139925;614160;0;9975
14833976;3010368;8116532;12860490;-5027199;892686;-9246207;0;0;-3145313;614162;0;9975
14830829;3009891;8113099;12858344;-5025673;655984;-9250165;0;0;-3150606;614164;0;9975
14833356;3013468;8115960;12860395;-5017853;545311;-9236432;0;0;-3143263;614166;0;9975
14837743;3014421;8116913;12867452;-5020189;662756;-9310580;0;0;-3130722;614168;0;9975
14848567;3022146;8124495;12881423;-5020952;953674;-9352732;0;0;-3116321;614170;0;9975
14854957;3026581;8128453;12889911;-5026865;1269531;-9318638;0;0;-3108024;614172;0;9975
14854146;3026295;8124066;12890340;-5034542;1509618;-9357691;0;0;-3106689;614174;0;9975
14854051;3025961;8124638;12887908;-5033541;1617002;-9422494;0;0;-3109407;614176;0;9975
14852096;3025627;8126975;12883855;-5028391;1457882;-9387541;0;0;-3119278;614178;0;9975
14849330;3027058;8127070;12879087;-5019236;1151704;-9379626;0;0;-3125858;614180;0;9975
14849807;3028917;8128310;12879993;-5011320;827264;-9354449;0;0;-3127098;614182;0;9975
14845611;3027296;8125830;12876226;-5008173;557470;-9364987;0;0;-3128195;614184;0;9975
14840843;3024149;8119297;12872649;-5007982;442981;-9360028;0;0;-3126955;614186;0;9975
14843036;3023863;8117199;12876988;-5013752;580501;-9378482;0;0;-3119707;614188;0;9975
14849140;3026867;8121443;12886239;-5018330;888013;-9396411;0;0;-3109360;614190;0;9975
14851667;3028440;8122731;12890769;-5027390;1208353;-9399892;0;0;-3103113;614192;0;9975
14852001;3026438;8121634;12891913;-5037356;1464033;-9388734;0;0;-3102350;614194;0;9975
14851238;3025770;8122254;12889863;-5038452;1584243;-9393502;0;0;-3105497;614196;0;9975
14845325;3024053;8121634;12881328;-5034065;1466274;-9334899;0;0;-3117370;614198;0;9975
14831592;3013897;8112574;12866069;-5033445;1173925;-9288121;0;0;-3135300;614200;0;9975
14829542;3012466;8111859;12863351;-5029392;856351;-9265614;0;0;-3140354;614202;0;9975
14832164;3014135;8115054;12864781;-5024767;603246;-9249592;0;0;-3140640;614204;0;9975
14835502;3017092;8116866;12866880;-5017614;486803;-9237958;0;0;-3133631;614206;0;9975
14840604;3019953;8117581;12873460;-5017471;609827;-9289313;0;0;-3120994;614208;0;9975
14844085;3020716;8118201;12878324;-5023384;904798;-9368468;0;0;-3113127;614210;0;9975
14848472;3022098;8118725;12884046;-5030966;1235962;-9386588;0;0;-3114176;614212;0;9975
14850952;3021860;8118868;12886335;-5038643;1483059;-9391022;0;0;-3121662;614214;0;9975
14846517;3018188;8116246;12881805;-5045128;1588201;-9434033;0;0;-3133392;614216;0;9975
14841558;3016996;8115817;12875749;-5040264;1457929;-9410668;0;0;-3137112;614218;0;9975
14837886;3015327;8115626;12867356;-5030727;1175117;-9321261;0;0;-3128958;614220;0;9975
14831163;3008222;8111334;12859632;-5029726;839567;-9269286;0;0;-3123093;614222;0;9975
14826967;3004455;8107758;12856389;-5031347;566768;-9292079;0;0;-3120804;614224;0;9975
14827205;3007603;8106328;12856628;-5027771;492477;-9218789;0;0;-3113460;614226;0;9975
14836599;3012228;8111907;12866450;-5026674;631904;-9252835;0;0;-3100109;614228;0;9975
14844562;3016329;8115292;12874271;-5029488;911426;-9390307;0;0;-3091144;614230;0;9975
14840127;3009462;8109665;12870837;-5044031;1189756;-9548617;0;0;-3094292;614232;0;9975
14842798;3010750;8111430;12875033;-5052424;1396465;-9641314;0;0;-3090811;614234;0;9975
14845039;3015184;8114386;12875606;-5049324;1527023;-9564496;0;0;-3090668;614236;0;9975
14838172;3009987;8112574;12865592;-5044556;1417684;-9433318;0;0;-3102779;614238;0;9975
14836217;3009128;8114291;12860442;-5034447;1130199;-9324790;0;0;-3108168;614240;0;9975
14835502;3009510;8114768;12858201;-5028868;792408;-9368468;0;0;-3108549;614242;0;9975
14837266;3011370;8118153;12858440;-5023337;543308;-9433556;0;0;-3106308;614244;0;9975
14839603;3015137;8120060;12861301;-5017948;438213;-9391118;0;0;-3102064;614246;0;9975
14843274;3017855;8118678;12867309;-5015802;592041;-9388924;0;0;-3095054;614248;0;9975
14845325;3018904;8118105;12873555;-5022812;898885;-9374810;0;0;-3088283;614250;0;9975
14851858;3023100;8123589;12881518;-5029774;1215410;-9434605;0;0;-3081751;614252;0;9975
14857198;3025818;8127738;12887431;-5034161;1454639;-9471226;0;0;-3081322;614254;0;9975
14855768;3024483;8127451;12884999;-5037642;1559925;-9497357;0;0;-3086185;614256;0;9975
14846469;3018904;8122969;12873078;-5035257;1438236;-9427024;0;0;-3100061;614258;0;9975
14842941;3016043;8123541;12867261;-5027294;1143121;-9315444;0;0;-3109121;614260;0;9975
14840747;3015327;8123017;12864305;-5021668;820112;-9365369;0;0;-3114748;614262;0;9975
14840747;3017425;8122731;12864495;-5017948;549268;-9415913;0;0;-3116035;614264;0;9975
14841987;3019857;8123351;12867166;-5010223;445413;-9365178;0;0;-3111696;614266;0;9975
14843656;3019523;8121539;12871457;-5012608;606536;-9329367;0;0;-3104210;614268;0;9975
14845134;3019571;8119154;12876178;-5021858;909280;-9314681;0;0;-3097010;614270;0;9975
14849044;3021717;8120442;12881089;-5030251;1216459;-9408665;0;0;-3092146;614272;0;9975
14859630;3029966;8130599;12894250;-5029631;1458549;-9462643;0;0;-3083372;614274;0;9975
14862968;3034258;8135367;12898685;-5028439;1563644;-9453488;0;0;-3083420;614276;0;9975
14852287;3028107;8128691;12885047;-5026102;1423740;-9409571;0;0;-3099489;614278;0;9975
14845373;3023529;8124829;12875272;-5020905;1124000;-9367800;0;0;-3112745;614280;0;9975
14848663;3027630;8129740;12878133;-5011129;809478;-9341908;0;0;-3112268;614282;0;9975
14847709;3026724;8129740;12877894;-5007935;560617;-9333897;0;0;-3114033;614284;0;9975
14848567;3028536;8127594;12878896;-5004120;457429;-9318782;0;0;-3110838;614286;0;9975
14852001;3031063;8126641;12884570;-5006361;616741;-9313298;0;0;-3100920;614288;0;9975
14851714;3028917;8125449;12887240;-5017519;922393;-9295512;0;0;-3095245;614290;0;9975
14847184;3022146;8117342;12885238;-5031872;1236248;-9312916;0;0;-3095102;614292;0;9975
14843465;3016615;8113242;12882424;-5044031;1475048;-9415341;0;0;-3097534;614294;0;9975
14842655;3017378;8112622;12877513;-5044890;1580810;-9421778;0;0;-3101683;614296;0;9975
14841987;3016853;8114481;12873317;-5039692;1431989;-9395981;0;0;-3109741;614298;0;9975
14840652;3019047;8118058;12870265;-5027390;1142072;-9328461;0;0;-3114319;614300;0;9975
14837266;3019523;8116198;12866450;-5021954;839662;-9284115;0;0;-3118849;614302;0;9975
14838983;3021192;8117915;12868787;-5016279;593710;-9277535;0;0;-3119278;614304;0;9975
14842702;3025389;8120013;12872792;-5006838;488233;-9255219;0;0;-3111172;614306;0;9975
14845992;3027344;8119965;12878944;-5009127;621080;-9291363;0;0;-3101778;614308;0;9975
14853431;3032064;8125782;12887622;-5013990;915289;-9402514;0;0;-3090668;614310;0;9975
14859105;3035402;8128644;12896348;-5017948;1246977;-9419013;0;0;-3081751;614312;0;9975
14860917;3034782;8129788;12896443;-5023527;1508522;-9382821;0;0;-3076649;614314;0;9975
14859773;3034639;8131075;12892295;-5025578;1611805;-9388972;0;0;-3077125;614316;0;9975
14854337;3030968;8130217;12885810;-5020809;1454782;-9402276;0;0;-3089237;614318;0;9975
14844705;3021765;8124304;12872077;-5020571;1150179;-9373475;0;0;-3107166;614320;0;9975
14841892;3019380;8122159;12865926;-5017376;832414;-9336234;0;0;-3114176;614322;0;9975
14839460;3017473;8119250;12861873;-5015802;588750;-9312678;0;0;-3117561;614324;0;9975
14835979;3012085;8114958;12856008;-5018568;495004;-9286452;0;0;-3118849;614326;0;9975
14838649;3009987;8113814;12859107;-5024815;648641;-9251309;0;0;-3111553;614328;0;9975
14840890;3008795;8115817;12863685;-5031681;959539;-9263039;0;0;-3103924;614330;0;9975
14842130;3007793;8115340;12866689;-5042172;1272964;-9311391;0;0;-3101349;614332;0;9975
14847900;3012657;8119441;12873794;-5043125;1521492;-9348679;0;0;-3092575;614334;0;9975
14848520;3013992;8123446;12872649;-5046511;1624298;-9321404;0;0;-3093767;614336;0;9975
14841939;3010559;8120966;12863637;-5044079;1493597;-9263611;0;0;-3106785;614338;0;9975
14836027;3008699;8119154;12856055;-5036879;1179647;-9205485;0;0;-3117609;614340;0;9975
14829780;3002453;8116007;12848664;-5035400;810480;-9355641;0;0;-3127670;614342;0;9975
14827968;3001022;8114291;12846566;-5031204;547885;-9451342;0;0;-3131580;614344;0;9975
14832593;3005934;8117486;12853433;-5023050;479126;-9326506;0;0;-3123999;614346;0;9975
14834644;3006983;8115006;12859059;-5027819;641727;-9272910;0;0;-3114319;614348;0;9975
14838411;3009176;8114052;12865592;-5031300;942897;-9299279;0;0;-3103113;614350;0;9975
14836932;3005886;8111144;12865687;-5042982;1255560;-9359170;0;0;-3103447;614352;0;9975
14835454;3002071;8108044;12864448;-5052424;1479292;-9403992;0;0;-3106642;614354;0;9975
14831735;2998876;8104706;12859346;-5058098;1590013;-9504605;0;0;-3113937;614356;0;9975
14828492;3001261;8106041;12855722;-5051851;1438093;-9482003;0;0;-3122616;614358;0;9975
14823390;3000307;8104754;12851668;-5044508;1137352;-9412099;0;0;-3132963;614360;0;9975
14823963;3002834;8107472;12853099;-5035734;825548;-9378005;0;0;-3133488;614362;0;9975
14824535;3003836;8108426;12852908;-5031872;588035;-9326745;0;0;-3134155;614364;0;9975
14832879;3015566;8115817;12865497;-5018759;500822;-9277678;0;0;-3120375;614366;0;9975
14836885;3021765;8116913;12875987;-5019760;654220;-9284449;0;0;-3106451;614368;0;9975
14839937;3024196;8116866;12882806;-5025959;954961;-9367991;0;0;-3097725;614370;0;9975
14840413;3022385;8115960;12885858;-5035353;1275301;-9380007;0;0;-3092956;614372;0;9975
14839031;3018665;8113814;12885953;-5045605;1525974;-9375001;0;0;-3092575;614374;0;9975
14837457;3018904;8112336;12882901;-5047941;1641512;-9348965;0;0;-3097296;614376;0;9975
14837028;3019571;8113909;12878944;-5038929;1499128;-9308243;0;0;-3106785;614378;0;9975
14834548;3017902;8112288;12872315;-5028916;1195335;-9267331;0;0;-3117275;614380;0;9975
14830400;3014088;8109761;12865354;-5025292;876140;-9271002;0;0;-3124952;614382;0;9975
14828683;3011989;8107853;12862397;-5022955;610542;-9305096;0;0;-3127432;614384;0;9975
14829780;3015375;8107901;12866069;-5017424;517320;-9281302;0;0;-3120136;614386;0;9975
14835407;3019476;8109713;12874652;-5017376;675392;-9283639;0;0;-3106308;614388;0;9975
14841796;3021955;8113766;12883569;-5022812;987768;-9290553;0;0;-3094005;614390;0;9975
14846422;3023529;8117867;12890578;-5028916;1305627;-9271289;0;0;-3085327;614392;0;9975
14846565;3023767;8116627;12890769;-5036545;1544666;-9308530;0;0;-3085947;614394;0;9975
14844705;3023958;8116866;12887956;-5039406;1639080;-9393979;0;0;-3096247;614396;0;9975
14843322;3025675;8119393;12882281;-5030441;1504945;-9332228;0;0;-3111076;614398;0;9975
14835311;3019762;8115340;12870742;-5025578;1200819;-9280491;0;0;-3128576;614400;0;9975
14831449;3014517;8111668;12864400;-5021954;880575;-9249783;0;0;-3129673;614402;0;9975
14823581;3005314;8106757;12854386;-5024815;640297;-9254647;0;0;-3124475;614404;0;9975
14819814;3001737;8102417;12850858;-5027723;543499;-9210969;0;0;-3118372;614406;0;9975
14828445;3007698;8106089;12861396;-5027819;689077;-9247494;0;0;-3101158;614408;0;9975
14838411;3015137;8114195;12874509;-5028677;993681;-9292555;0;0;-3083324;614410;0;9975
14850046;3025150;8124352;12888003;-5027437;1317072;-9260512;0;0;-3069877;614412;0;9975
14846279;3021717;8119774;12885190;-5036593;1563978;-9256173;0;0;-3074217;614414;0;9975
14844419;3020525;8119297;12880708;-5038786;1666307;-9263945;0;0;-3079462;614416;0;9975
14842178;3018808;8121300;12873221;-5032492;1516914;-9287692;0;0;-3085804;614418;0;9975
14836742;3015470;8117295;12865163;-5026054;1204776;-9232855;0;0;-3095102;614420;0;9975
14833642;3011036;8115197;12860442;-5023956;850343;-9257222;0;0;-3105402;614422;0;9975
14833785;3012705;8116675;12858773;-5016327;592708;-9299184;0;0;-3105974;614424;0;9975
14837409;3014707;8117581;12863160;-5009985;510406;-9268809;0;0;-3101873;614426;0;9975
14844753;3018236;8119011;12872602;-5010462;688552;-9257174;0;0;-3091001;614428;0;9975
14846469;3019380;8118916;12875129;-5017042;993538;-9306145;0;0;-3083658;614430;0;9975
14847471;3018904;8120442;12879325;-5026436;1275587;-9365178;0;0;-3078985;614432;0;9975
14849902;3019953;8122159;12882711;-5033350;1502037;-9378005;0;0;-3076696;614434;0;9975
14848043;3019047;8121634;12878610;-5035687;1597833;-9408951;0;0;-3082704;614436;0;9975
14843656;3016806;8121300;12870122;-5030155;1448965;-9386159;0;0;-3094149;614438;0;9975
14835073;3009128;8115960;12857343;-5025435;1143074;-9341574;0;0;-3106451;614440;0;9975
14826251;3001833;8109951;12849666;-5028010;830698;-9278632;0;0;-3117037;614442;0;9975
14827300;3003073;8111001;12850095;-5024195;562477;-9376813;0;0;-3119659;614444;0;9975
14830257;3006077;8110810;12852479;-5016375;458622;-9358168;0;0;-3114986;614446;0;9975
14831354;3005409;8107424;12858773;-5022383;620985;-9261180;0;0;-3108406;614448;0;9975
14837648;3010940;8110571;12870456;-5026531;917005;-9370757;0;0;-3096199;614450;0;9975
14844133;3014946;8116723;12877370;-5031014;1203775;-9466935;0;0;-3087330;614452;0;9975
14846612;3016567;8118392;12878371;-5036545;1432609;-9566308;0;0;-3086138;614454;0;9975
14844371;3015184;8118773;12876178;-5039501;1535606;-9543372;0;0;-3092050;614456;0;9975
14831497;3007459;8107853;12862159;-5040360;1397323;-9451581;0;0;-3108358;614458;0;9975
14820243;2998257;8100701;12848235;-5040360;1093578;-9401227;0;0;-3124523;614460;0;9975
14822437;2998638;8104277;12849284;-5032158;775241;-9381867;0;0;-3127003;614462;0;9975
14831592;3010416;8116436;12860061;-5019283;528621;-9386731;0;0;-3120184;614464;0;9975
14834167;3013468;8115864;12862540;-5012608;439024;-9373284;0;0;-3111791;614466;0;9975
14833118;3010988;8111144;12865115;-5018520;602197;-9384442;0;0;-3102159;614468;0;9975
14834834;3011942;8108902;12869645;-5026341;927877;-9385300;0;0;-3096771;614470;0;9975
14836742;3010940;8109141;12872268;-5035210;1254606;-9362031;0;0;-3093862;614472;0;9975
14840986;3014898;8112765;12877322;-5040646;1503563;-9317494;0;0;-3090525;614474;0;9975
14841272;3016662;8115483;12877275;-5040693;1597118;-9314538;0;0;-3093672;614476;0;9975
14834262;3010797;8110762;12868072;-5036736;1421833;-9363652;0;0;-3105831;614478;0;9975
14824058;3002310;8105135;12856628;-5036688;1108455;-9440900;0;0;-3121137;614480;0;9975
14820529;3000927;8102799;12850905;-5033302;793933;-9394694;0;0;-3127384;614482;0;9975
14822437;3005361;8102942;12851668;-5026198;558757;-9343243;0;0;-3123951;614484;0;9975
14823724;3007364;8103562;12853480;-5022526;470590;-9307099;0;0;-3119993;614486;0;9975
14827539;3009844;8105183;12860347;-5025816;622081;-9336329;0;0;-3111601;614488;0;9975
14831735;3010368;8105898;12866069;-5031538;936174;-9379864;0;0;-3103590;614490;0;9975
14838601;3012705;8111668;12874795;-5037975;1242208;-9408761;0;0;-3095674;614492;0;9975
14842655;3015804;8114100;12879277;-5040073;1480865;-9408188;0;0;-3088331;614494;0;9975
14835979;3010654;8107949;12870265;-5046558;1577425;-9431220;0;0;-3100681;614496;0;9975
14833690;3010273;8110333;12864686;-5040693;1420784;-9423161;0;0;-3113317;614498;0;9975
14829828;3008985;8108616;12856389;-5031300;1123047;-9359360;0;0;-3120184;614500;0;9975
14824439;3003406;8105803;12849523;-5028105;801324;-9339095;0;0;-3127909;614502;0;9975
14820291;3000545;8101655;12844707;-5029583;554323;-9322930;0;0;-3133249;614504;0;9975
14823724;3006124;8103705;12850572;-5021477;484848;-9288836;0;0;-3125715;614506;0;9975
14832212;3012752;8109951;12863685;-5018520;655651;-9271575;0;0;-3109550;614508;0;9975
14847328;3025484;8120585;12882043;-5014229;967168;-9262562;0;0;-3088570;614510;0;9975
14849855;3025436;8121348;12884856;-5025101;1263237;-9311057;0;0;-3085089;614512;0;9975
14846755;3018379;8118344;12879373;-5036163;1504421;-9381343;0;0;-3088331;614514;0;9975
14842178;3013515;8115864;12872935;-5042505;1607990;-9394789;0;0;-3096771;614516;0;9975
14835836;3010559;8113099;12863446;-5039168;1452446;-9306813;0;0;-3108787;614518;0;9975
14826013;3004026;8106423;12850524;-5035353;1107263;-9392787;0;0;-3123379;614520;0;9975
14821674;2999401;8103753;12846662;-5032635;775718;-9462691;0;0;-3130388;614522;0;9975
14830400;3010082;8112956;12855149;-5018854;535774;-9447957;0;0;-3120851;614524;0;9975
14834834;3014374;8115387;12859155;-5011082;447464;-9420252;0;0;-3111887;614526;0;9975
14837028;3013992;8113575;12864543;-5016661;610637;-9414912;0;0;-3102875;614528;0;9975
14835168;3009748;8109808;12865831;-5029345;923204;-9427024;0;0;-3100490;614530;0;9975
14837457;3010225;8110142;12870980;-5039644;1229667;-9429074;0;0;-3097963;614532;0;9975
14841462;3011894;8114768;12874175;-5045128;1478386;-9396268;0;0;-3095484;614534;0;9975
14834787;3004694;8111907;12863113;-5051661;1593733;-9347487;0;0;-3105020;614536;0;9975
14827062;2998829;8108473;12852717;-5048323;1458406;-9282113;0;0;-3117370;614538;0;9975
14823724;2998066;8107138;12848760;-5039120;1137066;-9335042;0;0;-3124571;614540;0;9975
14821531;2996206;8103800;12846614;-5033112;797987;-9355021;0;0;-3127575;614542;0;9975
14823009;2998304;8107090;12847472;-5026341;551796;-9289456;0;0;-3127384;614544;0;9975
14823915;3001308;8107138;12850619;-5023670;470829;-9316350;0;0;-3123474;614546;0;9975
14826490;3002596;8105708;12855817;-5030012;643062;-9340716;0;0;-3115940;614548;0;9975
14829494;3005457;8104134;12862063;-5036593;968170;-9298516;0;0;-3106403;614550;0;9975
14829923;3003836;8103133;12864495;-5046702;1257848;-9308482;0;0;-3104305;614552;0;9975
14834453;3005695;8108092;12871409;-5051708;1452255;-9401894;0;0;-3102398;614554;0;9975
14838506;3012371;8113432;12876178;-5047846;1552057;-9432746;0;0;-3100443;614556;0;9975
14839126;3018093;8117486;12875463;-5036354;1415157;-9406472;0;0;-3103065;614558;0;9975
14834215;3015947;8114624;12868453;-5029869;1110744;-9352351;0;0;-3113603;614560;0;9975
14828874;3013182;8110571;12864019;-5027723;761413;-9422112;0;0;-3120184;614562;0;9975
14828588;3016662;8111144;12865974;-5022574;507021;-9450627;0;0;-3119802;614564;0;9975
14833022;3021049;8113337;12870265;-5013085;440502;-9388972;0;0;-3112602;614566;0;9975
14834548;3018999;8111954;12872983;-5016613;604868;-9383631;0;0;-3104687;614568;0;9975
14834167;3015613;8108092;12873603;-5028439;920963;-9367514;0;0;-3103495;614570;0;9975
14839650;3020382;8113289;12882901;-5035448;1241493;-9352494;0;0;-3097868;614572;0;9975
14844753;3023529;8116484;12888146;-5039644;1489687;-9424163;0;0;-3093195;614574;0;9975
14843990;3022957;8117390;12885524;-5040073;1576948;-9441376;0;0;-3097534;614576;0;9975
14838744;3020000;8117104;12878038;-5034924;1415300;-9406377;0;0;-3108215;614578;0;9975
14836360;3018236;8116246;12871219;-5026054;1111841;-9367991;0;0;-3115988;614580;0;9975
14834310;3016996;8114148;12868548;-5019236;797319;-9313870;0;0;-3121090;614582;0;9975
14830734;3014088;8111382;12865020;-5016518;562477;-9260989;0;0;-3125858;614584;0;9975
14829542;3013992;8109522;12865306;-5014801;469017;-9274483;0;0;-3121853;614586;0;9975
14836122;3017044;8113146;12871648;-5017328;636768;-9326077;0;0;-3109646;614588;0;9975
14839460;3018665;8114291;12876083;-5023241;932502;-9405804;0;0;-3100252;614590;0;9975
14843894;3020239;8115006;12882043;-5030584;1231098;-9491873;0;0;-3092956;614592;0;9975
14846326;3020716;8115435;12884189;-5036163;1472187;-9498311;0;0;-3091383;614594;0;9975
14845659;3020382;8118105;12882138;-5037546;1569462;-9468079;0;0;-3096914;614596;0;9975
14846469;3023910;8123446;12879993;-5028582;1404905;-9439755;0;0;-3102541;614598;0;9975
14847184;3028393;8126879;12878324;-5012798;1107740;-9368992;0;0;-3103399;614600;0;9975
14840413;3020954;8120490;12870122;-5012608;794029;-9336424;0;0;-3112221;614602;0;9975
14834834;3016233;8115006;12864162;-5013514;539541;-9356690;0;0;-3118467;614604;0;9975
14832069;3015375;8110047;12863685;-5014372;441217;-9370661;0;0;-3117418;614606;0;9975
14836551;3016853;8111620;12869502;-5016899;603389;-9391595;0;0;-3106642;614608;0;9975
14838840;3018379;8111954;12875033;-5024719;924396;-9399987;0;0;-3100252;614610;0;9975
14849807;3025198;8120442;12885858;-5025816;1252699;-9387541;0;0;-3090191;614612;0;9975
14849569;3022289;8120203;12886716;-5032969;1503372;-9371615;0;0;-3090811;614614;0;9975
14842941;3017521;8117247;12877799;-5040693;1603794;-9331895;0;0;-3101206;614616;0;9975
14838315;3014564;8115530;12868072;-5035687;1434612;-9301234;0;0;-3114271;614618;0;9975
14834119;3012562;8113814;12860252;-5027485;1116085;-9308291;0;0;-3124475;614620;0;9975
14832593;3011703;8113909;12858583;-5021191;800562;-9268094;0;0;-3127336;614622;0;9975
14833213;3016233;8116436;12860967;-5013466;537395;-9354783;0;0;-3126287;614624;0;9975
14836599;3018761;8118201;12864400;-5009031;443506;-9368516;0;0;-3119278;614626;0;9975
14841701;3021192;8122397;12872268;-5011797;618696;-9377671;0;0;-3107166;614628;0;9975
14847232;3024292;8124161;12878324;-5016375;932884;-9409762;0;0;-3099155;614630;0;9975
14846279;3021002;8120680;12881423;-5028200;1226949;-9408236;0;0;-3099775;614632;0;9975
14850808;3024006;8123589;12886668;-5032349;1471185;-9411145;0;0;-3095007;614634;0;9975
14851095;3024912;8124781;12884904;-5032349;1566124;-9432364;0;0;-3097486;614636;0;9975
14844085;3021240;8121300;12875367;-5027437;1420784;-9332133;0;0;-3110361;614638;0;9975
14842225;3020668;8124066;12870504;-5019617;1094341;-9326220;0;0;-3118086;614640;0;9975
14844085;3022718;8126355;12871457;-5009270;755119;-9415436;0;0;-3118515;614642;0;9975
14840175;3020811;8123494;12868739;-5005694;525283;-9388066;0;0;-3120947;614644;0;9975
14837648;3020000;8120823;12869073;-5005217;467586;-9322119;0;0;-3118467;614646;0;9975
14843274;3023100;8123351;12875892;-5009937;660610;-9257460;0;0;-3107548;614648;0;9975
14849140;3026628;8125115;12881661;-5015469;977182;-9254742;0;0;-3097629;614650;0;9975
14851524;3024959;8126355;12885953;-5025864;1256418;-9416676;0;0;-3094339;614652;0;9975
14855291;3024912;8128071;12888623;-5031681;1476669;-9517480;0;0;-3092670;614654;0;9975
14854623;3027153;8129025;12888957;-5031061;1559734;-9434891;0;0;-3095627;614656;0;9975
14854480;3030109;8131552;12886811;-5021668;1383257;-9371234;0;0;-3103924;614658;0;9975
14849378;3027725;8129025;12877751;-5013180;1064586;-9441472;0;0;-3116798;614660;0;9975
14842798;3022385;8124304;12871696;-5011988;751113;-9437037;0;0;-3127622;614662;0;9975
14840890;3020763;8122492;12868548;-5009079;520134;-9357501;0;0;-3130960;614664;0;9975
14843608;3022623;8123208;12871934;-5004740;446319;-9336806;0;0;-3126001;614666;0;9975
14846851;3025246;8123589;12879134;-5008555;622224;-9349204;0;0;-3113460;614668;0;9975
14846660;3024244;8120060;12881995;-5019999;939369;-9376860;0;0;-3102398;614670;0;9975
14842559;3019523;8114863;12881614;-5033302;1223611;-9388781;0;0;-3100681;614672;0;9975
14836265;3013134;8108473;12877275;-5046177;1439523;-9468365;0;0;-3105163;614674;0;9975
14836122;3013801;8109427;12875701;-5047464;1539278;-9458018;0;0;-3108644;614676;0;9975
14837695;3017282;8114958;12874652;-5037022;1401329;-9362841;0;0;-3114414;614678;0;9975
14837934;3020716;8118582;12871886;-5022574;1116323;-9267951;0;0;-3117514;614680;0;9975
14835502;3019094;8118058;12868119;-5017567;787925;-9250355;0;0;-3120327;614682;0;9975
14834787;3017950;8116866;12866212;-5016327;503683;-9383536;0;0;-3121090;614684;0;9975
14841701;3025913;8121205;12874604;-5008078;412988;-9416867;0;0;-3108835;614686;0;9975
14845706;3030157;8123541;12882854;-5009508;602150;-9420157;0;0;-3097820;614688;0;9975
14848090;3029871;8122492;12886191;-5017281;939273;-9367085;0;0;-3090572;614690;0;9975
14850808;3030300;8123637;12890149;-5024052;1276779;-9250975;0;0;-3084421;614692;0;9975
14846851;3023815;8117676;12887622;-5037403;1493454;-9214688;0;0;-3090429;614694;0;9975
14841844;3018331;8115149;12880231;-5043268;1535082;-9364129;0;0;-3100681;614696;0;9975
14840366;3020811;8118201;12876750;-5034018;1367283;-9563494;0;0;-3107452;614698;0;9975
14835025;3017473;8114911;12869550;-5026198;1069450;-9517384;0;0;-3114891;614700;0;9975
14830638;3013325;8111430;12865115;-5023909;745344;-9454251;0;0;-3118181;614702;0;9975
14833642;3018951;8114148;12866784;-5015707;519180;-9414435;0;0;-3114176;614704;0;9975
14835359;3019762;8115817;12868548;-5013514;437688;-9396840;0;0;-3107548;614706;0;9975
14839984;3021383;8116436;12874032;-5015230;613498;-9338713;0;0;-3097153;614708;0;9975
14846231;3024530;8119250;12880851;-5019951;928402;-9441615;0;0;-3087950;614710;0;9975
14854003;3027820;8125496;12888719;-5024576;1225567;-9490824;0;0;-3078270;614712;0;9975
14854194;3028869;8126355;12891198;-5031538;1459694;-9443570;0;0;-3076362;614714;0;9975
14850999;3026676;8125258;12885238;-5034256;1532840;-9413005;0;0;-3082561;614716;0;9975
14841796;3017521;8119584;12870599;-5033112;1365232;-9438563;0;0;-3099394;614718;0;9975
14832879;3012705;8114291;12858916;-5029488;1068019;-9428502;0;0;-3111839;614720;0;9975
14824296;3005314;8106852;12853147;-5029869;747394;-9415579;0;0;-3123093;614722;0;9975
14823343;3006887;8106423;12853099;-5025244;494432;-9414006;0;0;-3125000;614724;0;9975
14825393;3009415;8108140;12857867;-5021525;412035;-9400416;0;0;-3119659;614726;0;9975
14835645;3017092;8115006;12872125;-5017853;598144;-9407330;0;0;-3104448;614728;0;9975
14839841;3017711;8114052;12876988;-5026293;920105;-9426547;0;0;-3097010;614730;0;9975
14840413;3018522;8113814;12880374;-5038309;1222753;-9440995;0;0;-3094292;614732;0;9975
14839126;3015518;8112860;12880136;-5046940;1457882;-9447385;0;0;-3096485;614734;0;9975
14839078;3014135;8113909;12877036;-5048037;1549196;-9440518;0;0;-3099966;614736;0;9975
14840270;3020334;8119154;12877179;-5035257;1397037;-9390450;0;0;-3104591;614738;0;9975
14832403;3016901;8114148;12868310;-5028868;1094770;-9326172;0;0;-3117752;614740;0;9975
14827253;3012800;8109475;12862397;-5025959;788688;-9269858;0;0;-3123808;614742;0;9975
14825965;3011894;8109332;12861157;-5023241;562191;-9190369;0;0;-3125238;614744;0;9975
14827539;3014231;8108807;12865735;-5018091;494527;-9239150;0;0;-3117370;614746;0;9975
14834596;3020620;8113528;12876655;-5020332;646925;-9379960;0;0;-3104925;614748;0;9975
14845563;3028583;8122063;12888290;-5021238;977850;-9355975;0;0;-3091287;614750;0;9975
14849521;3028107;8124066;12892581;-5027866;1304531;-9368516;0;0;-3087139;614752;0;9975
14847232;3024196;8120442;12889529;-5036783;1524591;-9406663;0;0;-3088713;614754;0;9975
14842178;3019333;8117486;12883092;-5043459;1618051;-9359456;0;0;-3097582;614756;0;9975
14835836;3017616;8113623;12874700;-5039120;1469278;-9278775;0;0;-3108311;614758;0;9975
14825822;3011608;8109284;12863351;-5034924;1142454;-9255124;0;0;-3120613;614760;0;9975
14824296;3009271;8109570;12860108;-5030918;822496;-9307290;0;0;-3126955;614762;0;9975
14825107;3009367;8108426;12860013;-5027723;566864;-9245539;0;0;-3128576;614764;0;9975
14824344;3010797;8106041;12861682;-5026293;477838;-9259129;0;0;-3123474;614766;0;9975
14829828;3013611;8108473;12867976;-5027008;635957;-9435464;0;0;-3112125;614768;0;9975
14835883;3014374;8112193;12875033;-5031443;962305;-9424067;0;0;-3102493;614770;0;9975
14839746;3014994;8114481;12880803;-5038071;1287269;-9416819;0;0;-3095198;614772;0;9975
14839174;3014564;8112097;12882186;-5045748;1538706;-9423781;0;0;-3092575;614774;0;9975
14838125;3017235;8112240;12880612;-5047321;1641035;-9292412;0;0;-3096056;614776;0;9975
14831687;3012752;8109808;12871076;-5043554;1446914;-9306241;0;0;-3107691;614778;0;9975
14829017;3010893;8109475;12863923;-5034113;1092291;-9328509;0;0;-3113317;614780;0;9975
14827300;3011179;8109904;12861396;-5028582;765466;-9311724;0;0;-3115129;614782;0;9975
14827730;3011894;8109761;12861777;-5022812;544452;-9282637;0;0;-3116560;614784;0;9975
14829828;3014707;8110190;12865926;-5018044;483894;-9278346;0;0;-3110885;614786;0;9975
14834310;3018236;8109379;12874414;-5021858;634956;-9363127;0;0;-3099918;614788;0;9975
14835883;3016186;8108092;12875701;-5030441;972700;-9330559;0;0;-3093767;614790;0;9975
14840032;3017855;8112956;12882234;-5037642;1323700;-9182644;0;0;-3088999;614792;0;9975
14839078;3015423;8108998;12882711;-5048561;1542234;-9292889;0;0;-3089619;614794;0;9975
14833881;3011179;8106375;12874271;-5052757;1568937;-9470368;0;0;-3096628;614796;0;9975
14825631;3002930;8100987;12859250;-5049610;1379203;-9483529;0;0;-3111553;614798;0;9975
14818813;2998733;8098269;12849618;-5042505;1059103;-9470893;0;0;-3121948;614800;0;9975
14814521;2995586;8095170;12845327;-5039644;744199;-9481621;0;0;-3129721;614802;0;9975
14817048;2999496;8099270;12848664;-5033112;497627;-9456778;0;0;-3127146;614804;0;9975
14823009;3004742;8103323;12854005;-5025339;438165;-9436560;0;0;-3115749;614806;0;9975
14830924;3010845;8106280;12863971;-5023575;618410;-9432269;0;0;-3101063;614808;0;9975
14835645;3012943;8106852;12871266;-5029869;938797;-9447480;0;0;-3092480;614810;0;9975
14842798;3017235;8111763;12881089;-5034876;1253223;-9444953;0;0;-3082561;614812;0;9975
14850427;3022385;8117152;12887288;-5036974;1498460;-9405232;0;0;-3076887;614814;0;9975
14851095;3024816;8122206;12885095;-5037403;1583147;-9390116;0;0;-3081846;614816;0;9975
14851428;3029537;8126545;12884141;-5025292;1396846;-9368086;0;0;-3087950;614818;0;9975
14844228;3025246;8122111;12874843;-5018664;1059055;-9409333;0;0;-3101730;614820;0;9975
14838363;3019047;8118105;12867833;-5017758;741338;-9417725;0;0;-3108787;614822;0;9975
14833261;3016186;8114195;12863828;-5017138;503206;-9393788;0;0;-3111076;614824;0;9975
14835311;3019619;8113051;12868262;-5015373;432777;-9382201;0;0;-3106928;614826;0;9975
14841510;3024959;8114815;12878944;-5016661;609970;-9406615;0;0;-3093719;614828;0;9975
14846279;3026914;8116055;12885905;-5023289;928020;-9430695;0;0;-3084612;614830;0;9975
14848186;3025246;8117772;12888623;-5033827;1235199;-9439660;0;0;-3081751;614832;0;9975
14850284;3025627;8120108;12890864;-5040264;1469993;-9441090;0;0;-3080320;614834;0;9975
14851238;3027963;8122302;12890626;-5037022;1554155;-9435225;0;0;-3084326;614836;0;9975
14845992;3025532;8120633;12883950;-5031300;1383257;-9397317;0;0;-3093338;614838;0;9975
14840890;3021431;8117199;12874032;-5022478;1073694;-9353591;0;0;-3102398;614840;0;9975
14834787;3016233;8110762;12867833;-5022907;758075;-9342480;0;0;-3112364;614842;0;9975
14834262;3021669;8113337;12869598;-5015230;527620;-9327555;0;0;-3108978;614844;0;9975
14837219;3023863;8115006;12874461;-5009794;461816;-9300614;0;0;-3100252;614846;0;9975
14842702;3026104;8117104;12881995;-5012131;647783;-9307814;0;0;-3086901;614848;0;9975
14841606;3023529;8112765;12883855;-5022717;964927;-9362412;0;0;-3083372;614850;0;9975
14842655;3021145;8111430;12884332;-5034590;1267814;-9385968;0;0;-3083324;614852;0;9975
14845992;3022385;8113432;12887384;-5042124;1502323;-9359360;0;0;-3081465;614854;0;9975
14846469;3024864;8116436;12886954;-5038786;1590872;-9318257;0;0;-3082228;614856;0;9975
14841367;3024006;8115960;12879754;-5032635;1386737;-9364319;0;0;-3093958;614858;0;9975
14839126;3023958;8116770;12874366;-5021238;1064109;-9371997;0;0;-3101873;614860;0;9975
14836646;3021431;8115578;12872506;-5016756;739669;-9356881;0;0;-3106260;614862;0;9975
14835264;3021383;8115101;12870837;-5014038;499868;-9355498;0;0;-3106928;614864;0;9975
14834215;3019810;8112336;12869741;-5011129;425672;-9404994;0;0;-3102207;614866;0;9975
14834739;3017711;8108187;12874318;-5018330;589180;-9465504;0;0;-3095102;614868;0;9975
14838840;3019142;8108807;12878562;-5025578;922155;-9455157;0;0;-3085470;614870;0;9975
14847995;3025341;8115721;12889005;-5031061;1241445;-9434033;0;0;-3077221;614872;0;9975
14850379;3027487;8117486;12892390;-5036688;1487207;-9406424;0;0;-3076076;614874;0;9975
14843131;3021288;8112240;12883092;-5039883;1556539;-9412242;0;0;-3086138;614876;0;9975
14834453;3015756;8107567;12870122;-5036306;1373720;-9376622;0;0;-3100443;614878;0;9975
14828874;3013038;8106184;12860871;-5028629;1068735;-9279633;0;0;-3111648;614880;0;9975
14826919;3013325;8105660;12859489;-5022097;756549;-9374810;0;0;-3115892;614882;0;9975
14829065;3014612;8106614;12861348;-5015564;497675;-9398223;0;0;-3116512;614884;0;9975
14837314;3022241;8112240;12871409;-5006266;434351;-9362984;0;0;-3110266;614886;0;9975
14844371;3028393;8117199;12881471;-5006647;615263;-9395934;0;0;-3099775;614888;0;9975
14843942;3025436;8113480;12881995;-5016470;917577;-9492922;0;0;-3092337;614890;0;9975
14846279;3024006;8114243;12885619;-5029440;1222896;-9496022;0;0;-3081512;614892;0;9975
14851285;3026914;8119774;12889815;-5033445;1481676;-9441567;0;0;-3070021;614894;0;9975
14846994;3024101;8117629;12883235;-5036593;1562071;-9412718;0;0;-3078794;614896;0;9975
14839698;3019953;8116055;12872411;-5032873;1386785;-9386683;0;0;-3095579;614898;0;9975
14838983;3020668;8120108;12871791;-5022812;1094150;-9342909;0;0;-3100967;614900;0;9975
14839364;3022718;8120823;12871457;-5016136;793886;-9261132;0;0;-3101683;614902;0;9975
14835788;3021192;8119584;12867595;-5012798;563049;-9195519;0;0;-3103256;614904;0;9975
14838697;3020954;8118582;12869502;-5009222;459051;-9298278;0;0;-3099537;614906;0;9975
14844133;3023815;8118439;12875749;-5011129;631380;-9461499;0;0;-3090858;614908;0;9975
14843227;3020716;8115912;12879659;-5022717;965738;-9463168;0;0;-3087902;614910;0;9975
14846183;3020811;8116293;12884761;-5032158;1295375;-9394360;0;0;-3084802;614912;0;9975
14847089;3021717;8115721;12885381;-5037975;1553249;-9388209;0;0;-3083753;614914;0;9975
14839221;3015613;8112336;12875701;-5045366;1597118;-9414864;0;0;-3094244;614916;0;9975
14832879;3010464;8107853;12864162;-5044460;1392316;-9414101;0;0;-3107691;614918;0;9975
14828397;3008556;8106947;12857534;-5033732;1090240;-9381343;0;0;-3114271;614920;0;9975
14824106;3005838;8106566;12854529;-5027390;772285;-9358121;0;0;-3119850;614922;0;9975
14823390;3006124;8106614;12853910;-5022001;524234;-9375811;0;0;-3121805;614924;0;9975
14823438;3006267;8103896;12856341;-5019426;457477;-9384108;0;0;-3117514;614926;0;9975
14826728;3007555;8104039;12863828;-5027151;638866;-9392596;0;0;-3107643;614928;0;9975
14834262;3011751;8107090;12872792;-5032444;982189;-9380913;0;0;-3096056;614930;0;9975
14837123;3011179;8107138;12876464;-5040836;1323080;-9347344;0;0;-3092766;614932;0;9975
14841176;3014278;8110953;12881089;-5044413;1569700;-9333945;0;0;-3089237;614934;0;9975
14840080;3014946;8112002;12877942;-5044556;1641226;-9319974;0;0;-3093910;614936;0;9975
14839364;3015232;8115912;12873555;-5035496;1456451;-9302569;0;0;-3103208;614938;0;9975
14839412;3019857;8120966;12871076;-5018044;1145696;-9278346;0;0;-3104782;614940;0;9975
14835883;3018856;8118344;12868787;-5012846;827169;-9267760;0;0;-3105593;614942;0;9975
14833595;3017282;8116866;12866069;-5010891;579404;-9272910;0;0;-3109264;614944;0;9975
14834834;3017330;8114005;12868930;-5009461;496053;-9301854;0;0;-3103208;614946;0;9975
14840509;3020668;8115244;12875367;-5011892;666666;-9347535;0;0;-3088999;614948;0;9975
14840747;3017616;8113719;12877704;-5023766;981092;-9376383;0;0;-3085565;614950;0;9975
14846183;3020334;8116675;12885572;-5034971;1280069;-9390879;0;0;-3079510;614952;0;9975
14847947;3020000;8115817;12885476;-5040264;1504945;-9434987;0;0;-3073740;614954;0;9975
14843036;3016424;8113623;12878800;-5041742;1567936;-9416867;0;0;-3080034;614956;0;9975
14838983;3016281;8115054;12871219;-5033493;1368427;-9376479;0;0;-3091335;614958;0;9975
14840175;3019571;8120347;12869454;-5019999;1054430;-9337474;0;0;-3095960;614960;0;9975
14835216;3014946;8116627;12863828;-5015469;769090;-9261084;0;0;-3101921;614962;0;9975
14832307;3012371;8113671;12858773;-5012083;553035;-9232426;0;0;-3102827;614964;0;9975
14833070;3014231;8111668;12861634;-5009842;468635;-9290314;0;0;-3097248;614966;0;9975
14835359;3016758;8108902;12869979;-5016041;619173;-9377719;0;0;-3088188;614968;0;9975
14836742;3015566;8106423;12873221;-5025911;952434;-9388638;0;0;-3083038;614970;0;9975
14843370;3017521;8113003;12880565;-5034447;1280737;-9360552;0;0;-3078413;614972;0;9975
14850189;3023052;8119536;12885667;-5035353;1508999;-9357644;0;0;-3073835;614974;0;9975
14846708;3020477;8118964;12879802;-5036211;1556348;-9410859;0;0;-3080463;614976;0;9975
14845325;3021192;8120490;12872506;-5028439;1366090;-9421063;0;0;-3091431;614978;0;9975
14840080;3020239;8120537;12868548;-5018425;1054716;-9379435;0;0;-3100347;614980;0;9975
14836742;3017998;8118535;12866117;-5014038;740623;-9366942;0;0;-3106689;614982;0;9975
14834501;3017616;8115340;12863065;-5011368;526809;-9309865;0;0;-3110075;614984;0;9975
14834119;3018713;8113766;12866164;-5010700;485563;-9285308;0;0;-3105593;614986;0;9975
14841844;3024626;8117724;12878514;-5012322;702333;-9234286;0;0;-3091383;614988;0;9975
14849569;3030825;8121443;12889720;-5017328;1036119;-9232236;0;0;-3077221;614990;0;9975
14854003;3031874;8123351;12895537;-5025148;1288080;-9329034;0;0;-3071260;614992;0;9975
14857007;3033066;8125687;12898398;-5031252;1467037;-9515715;0;0;-3069067;614994;0;9975
14856864;3034067;8128691;12895824;-5028772;1541090;-9542561;0;0;-3071833;614996;0;9975
14848043;3027487;8125353;12883378;-5025101;1353883;-9490920;0;0;-3085708;614998;0;9975
14838458;3020382;8119917;12871553;-5019951;1034736;-9430028;0;0;-3101492;615000;0;9975
14833118;3016996;8117581;12866593;-5017614;739479;-9348012;0;0;-3107500;615002;0;9975
14827634;3011131;8112336;12860681;-5017328;515747;-9372140;0;0;-3113365;615004;0;9975
14829542;3013515;8112336;12865687;-5013561;449228;-9319449;0;0;-3107023;615006;0;9975
14832069;3014278;8110571;12870742;-5018616;643062;-9349824;0;0;-3096866;615008;0;9975
14832498;3012895;8107472;12874509;-5031300;969648;-9365941;0;0;-3092480;615010;0;9975
14837743;3015232;8110857;12881852;-5041361;1283931;-9370185;0;0;-3088522;615012;0;9975
14842225;3018427;8114052;12885524;-5045986;1505804;-9365988;0;0;-3086471;615014;0;9975
14842130;3018808;8117009;12881423;-5043602;1576376;-9337950;0;0;-3092098;615016;0;9975
14836265;3015470;8117009;12871409;-5036736;1383257;-9282685;0;0;-3103828;615018;0;9975
14831449;3012228;8114768;12863589;-5026722;1044035;-9312010;0;0;-3116226;615020;0;9975
14827539;3009987;8112479;12860395;-5022287;711584;-9503794;0;0;-3123331;615022;0;9975
14827586;3012085;8113003;12859584;-5015802;482702;-9454585;0;0;-3122520;615024;0;9975
14833928;3018713;8117104;12868453;-5010319;440025;-9352160;0;0;-3111553;615026;0;9975
14846517;3027201;8122969;12881423;-5008030;627803;-9405232;0;0;-3096580;615028;0;9975
14857818;3035450;8132077;12896777;-5011416;952434;-9478999;0;0;-3082609;615030;0;9975
14856626;3034639;8127690;12898255;-5022717;1260662;-9482670;0;0;-3078699;615032;0;9975
14852954;3028583;8122874;12893821;-5033493;1478338;-9493685;0;0;-3080845;615034;0;9975
14849092;3027725;8123112;12887908;-5033636;1534843;-9488965;0;0;-3087711;615036;0;9975
14841892;3023910;8121586;12877275;-5028153;1350355;-9435988;0;0;-3101444;615038;0;9975
14837791;3020620;8119822;12867023;-5017185;1030445;-9418059;0;0;-3111315;615040;0;9975
14831067;3012705;8115483;12861444;-5016852;711298;-9408761;0;0;-3121185;615042;0;9975
14836122;3018427;8119441;12865449;-5007076;491762;-9405471;0;0;-3113413;615044;0;9975
14841987;3024387;8122731;12871457;-5000544;447654;-9381724;0;0;-3103208;615046;0;9975
14852620;3030872;8128691;12884523;-5001259;644493;-9370661;0;0;-3085613;615048;0;9975
14857532;3034258;8130265;12893010;-5009604;974035;-9393407;0;0;-3075075;615050;0;9975
14858915;3033495;8129740;12895251;-5021525;1293325;-9390212;0;0;-3073549;615052;0;9975
14859964;3032732;8130360;12895871;-5027580;1531648;-9373809;0;0;-3072548;615054;0;9975
14855386;3031444;8131314;12890578;-5026579;1601124;-9346772;0;0;-3079748;615056;0;9975
14851142;3028726;8130742;12882472;-5019379;1393699;-9373475;0;0;-3092575;615058;0;9975
14846994;3026533;8128930;12873841;-5010223;1058006;-9353352;0;0;-3103065;615060;0;9975
14840795;3019190;8122874;12866736;-5007649;739383;-9322549;0;0;-3113556;615062;0;9975
14837552;3018427;8119345;12864877;-5004120;496769;-9341193;0;0;-3118610;615064;0;9975
14840986;3024387;8120108;12873126;-4997349;436544;-9377862;0;0;-3109980;615066;0;9975
14851238;3030872;8125449;12886478;-4996777;644111;-9380198;0;0;-3093672;615068;0;9975
14858199;3034544;8128310;12897445;-5003738;986290;-9376002;0;0;-3084135;615070;0;9975
14861966;3036165;8130503;12901641;-5013514;1302099;-9376956;0;0;-3081941;615072;0;9975
14857198;3031683;8127213;12897349;-5023432;1529550;-9383727;0;0;-3085375;615074;0;9975
14851667;3027010;8124972;12888766;-5028963;1570606;-9404946;0;0;-3094149;615076;0;9975
14852573;3030920;8128834;12882854;-5015946;1385879;-9369422;0;0;-3098631;615078;0;9975
14847566;3026914;8125926;12875939;-5006123;1060533;-9348822;0;0;-3109360;615080;0;9975
14844228;3025579;8123160;12872745;-4999971;752782;-9317589;0;0;-3113365;615082;0;9975
14840461;3024626;8119870;12870408;-4998827;530052;-9290982;0;0;-3114748;615084;0;9975
14845325;3028440;8122206;12877275;-4993677;488281;-9264517;0;0;-3106165;615086;0;9975
14851381;3031921;8122826;12887479;-4996586;696086;-9269429;0;0;-3092527;615088;0;9975
14852191;3031778;8119917;12892581;-5009461;1022815;-9313203;0;0;-3084850;615090;0;9975
14855291;3032875;8121396;12898732;-5020714;1309681;-9367085;0;0;-3081083;615092;0;9975
14858342;3033447;8121491;12899114;-5025816;1519870;-9404374;0;0;-3078699;615094;0;9975
14854289;3028536;8119631;12891341;-5030251;1562833;-9446669;0;0;-3087997;615096;0;9975
14849140;3027105;8121872;12881661;-5020857;1396894;-9354449;0;0;-3100300;615098;0;9975
14840366;3021192;8116723;12870504;-5014801;1103830;-9223223;0;0;-3113651;615100;0;9975
14838458;3018045;8114863;12868453;-5009508;818014;-9139252;0;0;-3119278;615102;0;9975
14838029;3018188;8114815;12865592;-5006361;552320;-9181166;0;0;-3118086;615104;0;9975
14835073;3017568;8109522;12867547;-5006409;487709;-9290696;0;0;-3111696;615106;0;9975
14837648;3017807;8107996;12875177;-5013514;698185;-9312297;0;0;-3101206;615108;0;9975
14849998;3027630;8115483;12888957;-5013371;1002264;-9316636;0;0;-3087044;615110;0;9975
14853193;3027248;8115530;12892867;-5025005;1280784;-9488202;0;0;-3084087;615112;0;9975
14850856;3023100;8112002;12887908;-5036211;1502514;-9502650;0;0;-3085947;615114;0;9975
14850332;3021526;8114577;12882520;-5035973;1566124;-9483052;0;0;-3090477;615116;0;9975
14841558;3016519;8110095;12870360;-5030441;1382160;-9405232;0;0;-3105497;615118;0;9975
14840032;3019476;8110953;12868739;-5015326;1072359;-9317923;0;0;-3111696;615120;0;9975
14843942;3023624;8115960;12872411;-5002403;783825;-9250165;0;0;-3109646;615122;0;9975
14844610;3027010;8118105;12873126;-4994583;561809;-9234763;0;0;-3106642;615124;0;9975
14849426;3031111;8121396;12878944;-4989433;509595;-9152079;0;0;-3096390;615126;0;9975
14856769;3034496;8123589;12887384;-4991579;685930;-9259081;0;0;-3081751;615128;0;9975
14859392;3035736;8123589;12893153;-5001402;980091;-9542847;0;0;-3073597;615130;0;9975
14857484;3032875;8120680;12895251;-5015278;1295852;-9529401;0;0;-3071737;615132;0;9975
14856244;3028917;8118487;12893630;-5024862;1544141;-9480286;0;0;-3074884;615134;0;9975
14851142;3024864;8120108;12885619;-5029202;1603985;-9417058;0;0;-3089285;615136;0;9975
14847328;3023720;8126021;12877704;-5019236;1413297;-9333182;0;0;-3100061;615138;0;9975
14844705;3024578;8128787;12873508;-5006647;1092338;-9281922;0;0;-3105974;615140;0;9975
14844610;3025913;8130122;12873221;-4998732;785636;-9306384;0;0;-3107643;615142;0;9975
14839746;3021955;8124686;12868119;-4996824;581121;-9239531;0;0;-3113222;615144;0;9975
14842941;3025436;8123351;12873221;-4993391;539684;-9226752;0;0;-3104114;615146;0;9975
14848710;3027153;8124590;12881900;-4998875;718259;-9237338;0;0;-3092098;615148;0;9975
14856197;3031063;8127738;12892676;-5004406;1035499;-9369279;0;0;-3079271;615150;0;9975
14862968;3035974;8129597;12900878;-5011082;1354980;-9393025;0;0;-3075075;615152;0;9975
14865781;3037596;8131552;12903787;-5016613;1574230;-9376670;0;0;-3075695;615154;0;9975
14860822;3033638;8130980;12897349;-5016756;1610803;-9413720;0;0;-3082609;615156;0;9975
14853431;3029299;8126545;12886430;-5012703;1414489;-9384537;0;0;-3096866;615158;0;9975
14847089;3027391;8125115;12878085;-5002451;1087474;-9350396;0;0;-3106880;615160;0;9975
14846231;3029251;8124543;12878848;-4995728;785017;-9279395;0;0;-3109169;615162;0;9975
14851095;3037023;8128644;12883569;-4985380;578546;-9247113;0;0;-3106022;615164;0;9975
14855052;3039217;8127785;12887765;-4982567;522947;-9269429;0;0;-3104114;615166;0;9975
14858104;3041744;8125020;12895681;-4986572;721168;-9304238;0;0;-3092098;615168;0;9975
14856054;3037929;8119297;12897779;-5001640;1061868;-9311152;0;0;-3081894;615170;0;9975
14855672;3033066;8117533;12897683;-5015850;1363086;-9352065;0;0;-3076887;615172;0;9975
14854003;3029346;8116770;12896110;-5026865;1592445;-9335471;0;0;-3079223;615174;0;9975
14854194;3031635;8120919;12894202;-5024243;1651191;-9309245;0;0;-3082180;615176;0;9975
14849473;3030443;8120823;12887145;-5014944;1439047;-9320355;0;0;-3090286;615178;0;9975
14844419;3027534;8118487;12879087;-5007362;1087618;-9332610;0;0;-3099012;615180;0;9975
14843561;3025961;8118821;12873794;-5000639;773716;-9309006;0;0;-3100729;615182;0;9975
14843513;3024196;8117962;12872459;-4996061;549364;-9296704;0;0;-3104401;615184;0;9975
14846565;3029156;8117247;12880660;-4991675;506305;-9291411;0;0;-3098440;615186;0;9975
14847566;3028965;8113480;12886478;-5000067;707912;-9314728;0;0;-3088665;615188;0;9975
14849426;3028250;8111191;12890292;-5013228;1036119;-9338141;0;0;-3083181;615190;0;9975
14854194;3031540;8114481;12898351;-5022383;1355362;-9334851;0;0;-3078318;615192;0;9975
14860154;3037262;8120585;12904788;-5024576;1580381;-9304858;0;0;-3071022;615194;0;9975
14852668;3030920;8113242;12893344;-5028582;1626873;-9315110;0;0;-3081226;615196;0;9975
14844610;3026390;8110571;12883330;-5024004;1417446;-9328509;0;0;-3098011;615198;0;9975
14844562;3028011;8115149;12878753;-5010843;1077175;-9319449;0;0;-3106546;615200;0;9975
14844323;3027439;8116675;12875320;-5000162;780153;-9255744;0;0;-3108883;615202;0;9975
14841606;3026008;8115626;12874080;-4998589;576067;-9180976;0;0;-3110981;615204;0;9975
14844371;3028488;8114052;12878228;-4996109;541067;-9150601;0;0;-3101301;615206;0;9975
14850522;3030252;8115244;12888528;-5001736;703811;-9265948;0;0;-3088522;615208;0;9975
14856387;3034496;8117152;12896300;-5009317;1010751;-9423924;0;0;-3078127;615210;0;9975
14853431;3029966;8112956;12895537;-5024862;1323509;-9362507;0;0;-3080416;615212;0;9975
14853050;3027487;8111859;12894059;-5035067;1543808;-9323931;0;0;-3083610;615214;0;9975
14861204;3034544;8122349;12898017;-5024338;1590442;-9448338;0;0;-3078365;615216;0;9975
14856149;3032732;8120680;12887479;-5014992;1396179;-9445906;0;0;-3087902;615218;0;9975
14847804;3027010;8115912;12876035;-5008888;1058054;-9382105;0;0;-3102016;615220;0;9975
14844991;3025627;8115197;12871123;-5000782;728130;-9365845;0;0;-3107881;615222;0;9975
14839078;3021192;8110428;12864877;-5000639;506210;-9336615;0;0;-3111744;615224;0;9975
14840843;3021002;8110095;12868548;-5001640;469493;-9279347;0;0;-3104162;615226;0;9975
14852716;3031826;8116675;12883760;-5001593;699710;-9303570;0;0;-3086662;615228;0;9975
14858056;3035736;8117152;12893916;-5008745;1027345;-9380913;0;0;-3077030;615230;0;9975
14857961;3032970;8114624;12896062;-5022097;1308489;-9393216;0;0;-3074503;615232;0;9975
14855291;3030634;8112002;12895061;-5031157;1527357;-9400321;0;0;-3076029;615234;0;9975
14848710;3025865;8108902;12886239;-5034542;1576233;-9386254;0;0;-3089142;615236;0;9975
14842178;3022194;8105946;12873698;-5027533;1362466;-9301758;0;0;-3102970;615238;0;9975
14835407;3018331;8103657;12865831;-5020619;1026678;-9417058;0;0;-3112602;615240;0;9975
14828683;3013611;8099318;12860204;-5019140;714349;-9471036;0;0;-3120232;615242;0;9975
14828397;3014278;8099127;12860490;-5014372;495624;-9401990;0;0;-3118181;615244;0;9975
14835883;3020620;8103657;12872602;-5007124;455999;-9322882;0;0;-3105020;615246;0;9975
14842607;3025961;8106757;12882663;-5009699;676059;-9307576;0;0;-3091287;615248;0;9975
14841987;3022480;8101511;12883664;-5023623;1013374;-9337855;0;0;-3087902;615250;0;9975
14843561;3019762;8101273;12885858;-5036259;1289320;-9428406;0;0;-3087997;615252;0;9975
14842416;3018093;8099938;12885142;-5044031;1507234;-9541941;0;0;-3089619;615254;0;9975
14837219;3013611;8097840;12877227;-5044317;1566505;-9416390;0;0;-3099012;615256;0;9975
14833595;3012800;8099270;12869168;-5034399;1385498;-9306288;0;0;-3110361;615258;0;9975
14827014;3006887;8096409;12858106;-5028772;1054048;-9326888;0;0;-3120232;615260;0;9975
14821769;3002357;8092833;12853194;-5025005;715398;-9398652;0;0;-3125620;615262;0;9975
14824201;3005743;8097315;12856532;-5017805;461006;-9446002;0;0;-3125048;615264;0;9975
14829923;3011131;8099270;12864305;-5013037;438165;-9364558;0;0;-3116560;615266;0;9975
14837648;3016949;8101321;12874604;-5016756;661420;-9343720;0;0;-3100109;615268;0;9975
14841749;3019714;8100224;12880565;-5024338;1008176;-9354878;0;0;-3090095;615270;0;9975
14839794;3015232;8097601;12882138;-5040121;1307821;-9402943;0;0;-3089714;615272;0;9975
14840986;3016138;8098078;12883235;-5045557;1512718;-9486628;0;0;-3089046;615274;0;9975
14838411;3015375;8099366;12878944;-5044413;1561927;-9454823;0;0;-3096247;615276;0;9975
14835883;3016424;8103228;12873174;-5033589;1369142;-9362364;0;0;-3105354;615278;0;9975
14830304;3012085;8101941;12864114;-5023241;1029443;-9332562;0;0;-3115702;615280;0;9975
14827443;3009939;8100892;12859298;-5019903;698852;-9333087;0;0;-3123188;615282;0;9975
14831210;3015232;8105040;12863017;-5010462;460434;-9395409;0;0;-3118181;615284;0;9975
14837409;3020239;8107520;12871553;-5003548;428009;-9437514;0;0;-3104830;615286;0;9975
14838125;3018236;8102465;12875653;-5013228;644350;-9426118;0;0;-3094721;615288;0;9975
14840270;3018284;8100796;12881232;-5025673;975895;-9446431;0;0;-3087711;615290;0;9975
14842941;3018093;8102465;12884570;-5034447;1295042;-9445906;0;0;-3082657;615292;0;9975
14842416;3015423;8100415;12882329;-5040932;1524639;-9449340;0;0;-3084564;615294;0;9975
14835407;3009891;8097697;12873460;-5047512;1562786;-9430457;0;0;-3096104;615296;0;9975
14827205;3007936;8095789;12862683;-5039072;1365709;-9394074;0;0;-3109217;615298;0;9975
14820100;3002596;8090067;12853147;-5032396;1048469;-9337474;0;0;-3121710;615300;0;9975
14816572;2999306;8086920;12847997;-5028772;732660;-9295798;0;0;-3127289;615302;0;9975
14813377;2998400;8085633;12844230;-5026150;511837;-9267378;0;0;-3128672;615304;0;9975
14821292;3005886;8090353;12855960;-5019045;493240;-9187413;0;0;-3116655;615306;0;9975
14832212;3013086;8095313;12869073;-5020428;690507;-9268475;0;0;-3099251;615308;0;9975
14836694;3014421;8095932;12876083;-5028916;1005029;-9505845;0;0;-3084135;615310;0;9975
14845373;3020859;8102942;12886716;-5032730;1305961;-9511281;0;0;-3072548;615312;0;9975
14846422;3020239;8104659;12887860;-5037308;1530456;-9448147;0;0;-3072071;615314;0;9975
14842559;3016758;8102561;12878610;-5039120;1578283;-9439040;0;0;-3082371;615316;0;9975
14831973;3009939;8097697;12864209;-5035687;1373911;-9390641;0;0;-3098583;615318;0;9975
14828254;3009748;8097125;12858821;-5024099;1052522;-9324837;0;0;-3107023;615320;0;9975
14823247;3005075;8093596;12854148;-5022001;730562;-9318972;0;0;-3115606;615322;0;9975
14826585;3007984;8096791;12857867;-5016756;496721;-9324122;0;0;-3114843;615324;0;9975
14830972;3012609;8097411;12865258;-5010891;466823;-9318638;0;0;-3104162;615326;0;9975
14834119;3014374;8096409;12872411;-5017614;684928;-9336091;0;0;-3093195;615328;0;9975
14836932;3016424;8095646;12878467;-5027247;1027774;-9343815;0;0;-3084993;615330;0;9975
14839031;3015423;8095694;12880612;-5036831;1346016;-9309674;0;0;-3080559;615332;0;9975
14841224;3015661;8095170;12881185;-5042887;1559019;-9372807;0;0;-3081131;615334;0;9975
14834167;3009891;8093310;12871409;-5045700;1602077;-9319354;0;0;-3092956;615336;0;9975
14828159;3007555;8094073;12862493;-5037737;1405239;-9332276;0;0;-3107834;615338;0;9975
14820243;3003263;8089972;12855102;-5029488;1068163;-9243107;0;0;-3122139;615340;0;9975
14823247;3006601;8094168;12857629;-5021906;758981;-9162284;0;0;-3122139;615342;0;9975
14823963;3008938;8095646;12857390;-5014467;543499;-9245444;0;0;-3118181;615344;0;9975
14822818;3007841;8092356;12859298;-5017090;489282;-9325171;0;0;-3113651;615346;0;9975
14833499;3015184;8097268;12873603;-5020714;660848;-9414769;0;0;-3098297;615348;0;9975
14841606;3020429;8101511;12881471;-5025244;980234;-9507323;0;0;-3085184;615350;0;9975
14841844;3017711;8098937;12883855;-5036306;1296711;-9510279;0;0;-3085184;615352;0;9975
14842798;3018570;8100892;12885715;-5041361;1543903;-9450484;0;0;-3083753;615354;0;9975
14842321;3018522;8103943;12881185;-5039168;1598072;-9364463;0;0;-3088093;615356;0;9975
14832975;3011131;8100081;12866689;-5034685;1388025;-9308911;0;0;-3105306;615358;0;9975
14827777;3009319;8097554;12861062;-5025053;1030445;-9354544;0;0;-3116083;615360;0;9975
14825250;3007364;8096505;12857343;-5020237;693273;-9387351;0;0;-3120613;615362;0;9975
14824535;3005552;8096266;12853337;-5017233;450182;-9387351;0;0;-3122330;615364;0;9975
14826824;3006887;8094645;12857247;-5014944;435304;-9371567;0;0;-3114748;615366;0;9975
14833356;3010225;8095408;12866880;-5018997;670480;-9338236;0;0;-3100920;615368;0;9975
14841653;3014994;8099986;12876988;-5022717;978803;-9416915;0;0;-3084755;615370;0;9975
14846422;3017044;8101941;12883473;-5030394;1279878;-9551144;0;0;-3075313;615372;0;9975
14848043;3018188;8103943;12886382;-5035353;1519584;-9499360;0;0;-3074550;615374;0;9975
14842368;3016472;8102227;12879611;-5038786;1575041;-9407187;0;0;-3084755;615376;0;9975
14838983;3016376;8103276;12870980;-5029392;1370906;-9383107;0;0;-3095436;615378;0;9975
14834834;3015232;8103323;12865735;-5017424;1033020;-9354401;0;0;-3107881;615380;0;9975
14830209;3010607;8100081;12860204;-5014992;690221;-9408904;0;0;-3113747;615382;0;9975
14828588;3009701;8099556;12858583;-5012083;457000;-9409619;0;0;-3115129;615384;0;9975
14831687;3012085;8099366;12863446;-5006218;455236;-9346915;0;0;-3105116;615386;0;9975
14834024;3013229;8097125;12869836;-5013085;687551;-9332419;0;0;-3093052;615388;0;9975
14843179;3020239;8103180;12881423;-5019379;1015949;-9381676;0;0;-3077698;615390;0;9975
14854862;3029442;8111287;12893773;-5022097;1312494;-9450007;0;0;-3064489;615392;0;9975
14853622;3027868;8108569;12892057;-5029631;1547336;-9425688;0;0;-3067732;615394;0;9975
14847471;3020429;8104134;12882901;-5033493;1587057;-9422112;0;0;-3083181;615396;0;9975
14844085;3022337;8108521;12876750;-5022955;1378059;-9334422;0;0;-3093672;615398;0;9975
14839889;3022528;8109665;12871839;-5012131;1041698;-9343482;0;0;-3102827;615400;0;9975
14836313;3020811;8106614;12869645;-5006027;721120;-9262086;0;0;-3108120;615402;0;9975
14832879;3017092;8101416;12863875;-5006361;475645;-9269190;0;0;-3110695;615404;0;9975
14836599;3018570;8104182;12867118;-5005932;433301;-9403754;0;0;-3096914;615406;0;9975
14839650;3018522;8102513;12872888;-5013275;644826;-9454108;0;0;-3083753;615408;0;9975
14847471;3024816;8106423;12886239;-5017567;993108;-9448577;0;0;-3069210;615410;0;9975
14851524;3025484;8108902;12890578;-5025339;1311540;-9444237;0;0;-3063869;615412;0;9975
14848520;3020429;8103180;12886573;-5034971;1532030;-9451867;0;0;-3067922;615414;0;9975
14843513;3020429;8102465;12881089;-5034542;1575899;-9431458;0;0;-3077459;615416;0;9975
14836980;3018856;8101321;12873078;-5028677;1368189;-9362460;0;0;-3094339;615418;0;9975
14833499;3017950;8100892;12867738;-5019713;1022625;-9316016;0;0;-3106165;615420;0;9975
14832975;3017950;8101988;12867595;-5012322;710678;-9328318;0;0;-3109264;615422;0;9975
14831687;3019237;8101178;12866975;-5008650;476932;-9374095;0;0;-3111315;615424;0;9975
14836789;3023958;8102608;12871696;-5001688;456953;-9363890;0;0;-3099155;615426;0;9975
14836408;3020334;8098841;12875558;-5012941;669527;-9346343;0;0;-3089571;615428;0;9975
14840175;3022671;8099747;12883855;-5024529;1012945;-9362126;0;0;-3081608;615430;0;9975
14846708;3025246;8103562;12890292;-5032110;1319837;-9411002;0;0;-3075170;615432;0;9975
14841367;3017759;8098746;12882997;-5045462;1527834;-9486962;0;0;-3080654;615434;0;9975
14836694;3013944;8096076;12874461;-5047131;1563501;-9440518;0;0;-3089571;615436;0;9975
14834930;3016233;8098889;12868501;-5035210;1358556;-9388257;0;0;-3098726;615438;0;9975
14825918;3011608;8093214;12858440;-5029917;1024389;-9345484;0;0;-3110981;615440;0;9975
14819814;3006935;8088875;12853910;-5028629;716018;-9296847;0;0;-3117657;615442;0;9975
14815379;3002977;8085299;12850190;-5028486;514411;-9243870;0;0;-3121185;615444;0;9975
14818097;3004408;8083725;12853910;-5027533;513362;-9189654;0;0;-3112650;615446;0;9975
14833309;3016853;8094883;12871314;-5022860;758552;-9137011;0;0;-3091621;615448;0;9975
14852001;3029871;8110476;12891723;-5018902;1103210;-9062958;0;0;-3069401;615450;0;9975
14857580;3032732;8113051;12897779;-5026054;1374340;-9253026;0;0;-3063774;615452;0;9975
14853336;3030014;8109856;12894202;-5035877;1525306;-9524584;0;0;-3067779;615454;0;9975
14844037;3022146;8105946;12883712;-5039644;1528787;-9614516;0;0;-3080082;615456;0;9975
14831735;3013420;8099366;12869550;-5038166;1303386;-9567071;0;0;-3097343;615458;0;9975
14828111;3012228;8098078;12862683;-5027628;973415;-9499741;0;0;-3106975;615460;0;9975
14827634;3012037;8099604;12860871;-5021191;682067;-9406043;0;0;-3111172;615462;0;9975
14828254;3014994;8101416;12862588;-5014610;484705;-9325743;0;0;-3109026;615464;0;9975
14830018;3014612;8098603;12864638;-5013895;456762;-9311104;0;0;-3104639;615466;0;9975
14833595;3016138;8098221;12870074;-5020905;667572;-9433222;0;0;-3092670;615468;0;9975
14837266;3017807;8098269;12877990;-5028772;1013231;-9446240;0;0;-3083992;615470;0;9975
14839317;3017092;8097125;12883807;-5041599;1302623;-9491587;0;0;-3082800;615472;0;9975
14839698;3018427;8098126;12883426;-5047751;1513481;-9495831;0;0;-3083515;615474;0;9975
14835740;3014612;8098031;12874938;-5046225;1556110;-9435368;0;0;-3089523;615476;0;9975
14837076;3020191;8103800;12873269;-5032396;1342821;-9375716;0;0;-3096390;615478;0;9975
14840795;3025913;8110619;12873937;-5014372;998067;-9392310;0;0;-3100824;615480;0;9975
14835693;3021192;8108378;12870074;-5012226;692987;-9370566;0;0;-3108072;615482;0;9975
14834310;3021908;8106375;12868119;-5008268;483894;-9314490;0;0;-3109503;615484;0;9975
14834262;3021192;8102894;12868405;-5006361;450897;-9360219;0;0;-3104257;615486;0;9975
14840318;3023052;8104563;12875272;-5013657;658083;-9472657;0;0;-3092718;615488;0;9975
14846851;3026676;8107615;12882854;-5020809;987100;-9464074;0;0;-3081322;615490;0;9975
14846469;3023672;8105803;12884904;-5033875;1301241;-9422017;0;0;-3080797;615492;0;9975
14843274;3018999;8101321;12881661;-5044079;1517105;-9509993;0;0;-3084564;615494;0;9975
14839221;3016901;8101035;12875224;-5044556;1548910;-9464455;0;0;-3093099;615496;0;9975
14832927;3014707;8098793;12865831;-5038309;1346397;-9334660;0;0;-3109169;615498;0;9975
14833165;3016662;8101082;12864019;-5025148;1014661;-9271718;0;0;-3117418;615500;0;9975
14827300;3010940;8097792;12858201;-5024481;692129;-9267140;0;0;-3125381;615502;0;9975
14827205;3010082;8098746;12857581;-5019236;464820;-9345723;0;0;-3125334;615504;0;9975
14830543;3012657;8099652;12860061;-5016136;426149;-9403992;0;0;-3116274;615506;0;9975
14837648;3018999;8102513;12871934;-5017758;626945;-9510899;0;0;-3099871;615508;0;9975
14842893;3023386;8104277;12882615;-5025816;966644;-9526492;0;0;-3088188;615510;0;9975
14849140;3024721;8107329;12888433;-5033589;1288557;-9502221;0;0;-3082037;615512;0;9975
14851524;3025722;8109713;12890912;-5035973;1509905;-9512282;0;0;-3080225;615514;0;9975
14850284;3027248;8111001;12888337;-5031347;1542043;-9483672;0;0;-3087139;615516;0;9975
14837409;3019762;8103037;12874461;-5030680;1331234;-9422160;0;0;-3107262;615518;0;9975
14833261;3020334;8103037;12869025;-5022001;996208;-9380627;0;0;-3114653;615520;0;9975
14832164;3018665;8104134;12865974;-5017471;684309;-9343959;0;0;-3118324;615522;0;9975
14832212;3018617;8102608;12866212;-5012417;490379;-9276105;0;0;-3117609;615524;0;9975
14834501;3021002;8102179;12870551;-5011177;469017;-9261704;0;0;-3110695;615526;0;9975
14837552;3021717;8100939;12877608;-5017948;654697;-9286023;0;0;-3098488;615528;0;9975
14842416;3025102;8103657;12886811;-5025101;1010608;-9476472;0;0;-3086185;615530;0;9975
14847661;3027105;8107710;12891198;-5032015;1326990;-9423876;0;0;-3078890;615532;0;9975
14850284;3028965;8108807;12891866;-5035734;1562071;-9410000;0;0;-3077936;615534;0;9975
14848138;3027820;8110571;12888242;-5034208;1582431;-9393550;0;0;-3087234;615536;0;9975
14841844;3025579;8109761;12877561;-5027151;1351022;-9345675;0;0;-3100967;615538;0;9975
14833881;3020525;8104086;12867595;-5021763;998306;-9355403;0;0;-3114223;615540;0;9975
14828731;3016186;8100272;12862397;-5019522;697183;-9339142;0;0;-3120136;615542;0;9975
14827062;3013754;8098221;12860204;-5016708;458669;-9406186;0;0;-3121757;615544;0;9975
14835740;3020477;8104277;12868930;-5009985;444793;-9394074;0;0;-3108501;615546;0;9975
14839984;3021002;8106041;12875558;-5015040;696325;-9363604;0;0;-3095245;615548;0;9975
14848043;3026247;8109999;12885762;-5020571;1056718;-9359313;0;0;-3083467;615550;0;9975
14853193;3029680;8112193;12891580;-5026436;1368236;-9359885;0;0;-3076267;615552;0;9975
14850189;3026628;8109284;12888051;-5035877;1560831;-9393979;0;0;-3079462;615554;0;9975
14846517;3023529;8111096;12883092;-5037689;1571321;-9500361;0;0;-3088474;615556;0;9975
14845373;3026152;8113575;12878848;-5024767;1369524;-9423161;0;0;-3097486;615558;0;9975
14841510;3026247;8113671;12874318;-5014134;1051569;-9303141;0;0;-3107595;615560;0;9975
14840795;3025818;8114291;12872840;-5008650;761461;-9197999;0;0;-3110599;615562;0;9975
14843227;3028393;8116198;12872840;-5000734;553274;-9150839;0;0;-3107309;615564;0;9975
14850999;3034544;8119822;12881566;-4992390;503778;-9274245;0;0;-3095579;615566;0;9975
14858104;3038931;8122254;12890912;-4994965;714016;-9367991;0;0;-3081894;615568;0;9975
14856292;3036165;8115578;12892247;-5006838;1044559;-9437895;0;0;-3076744;615570;0;9975
14857484;3034305;8114148;12895108;-5017853;1354408;-9423447;0;0;-3073740;615572;0;9975
14856817;3033161;8116436;12894441;-5023623;1569557;-9369469;0;0;-3074121;615574;0;9975
14853336;3032112;8118010;12886954;-5024386;1565408;-9519005;0;0;-3082466;615576;0;9975
14848996;3030348;8118535;12881661;-5017328;1334810;-9497452;0;0;-3096294;615578;0;9975
14843847;3026724;8113766;12874843;-5011177;1008987;-9405471;0;0;-3109789;615580;0;9975
14840318;3024101;8109713;12869550;-5007458;702810;-9365988;0;0;-3114319;615582;0;9975
14843036;3027773;8112574;12873078;-5000639;495195;-9365273;0;0;-3110981;615584;0;9975
14845563;3029299;8113003;12876226;-4999256;490999;-9273434;0;0;-3104019;615586;0;9975
14852334;3034782;8117152;12886144;-5000067;711202;-9316397;0;0;-3089809;615588;0;9975
14855672;3036404;8116866;12892676;-5006743;1037263;-9472037;0;0;-3080416;615590;0;9975
14855815;3033638;8114911;12894202;-5016995;1347208;-9438229;0;0;-3076410;615592;0;9975
14850761;3028059;8110905;12889815;-5028486;1554203;-9415150;0;0;-3080797;615594;0;9975
14847232;3026867;8111048;12884856;-5028057;1574802;-9405423;0;0;-3090429;615596;0;9975
14842082;3026199;8109808;12878562;-5019713;1353883;-9393788;0;0;-3105020;615598;0;9975
14838744;3024006;8108330;12873460;-5012179;1018667;-9355832;0;0;-3115749;615600;0;9975
14839126;3025055;8109236;12873126;-5004835;703001;-9341956;0;0;-3118086;615602;0;9975
14834119;3022718;8104325;12869931;-5004120;479984;-9338952;0;0;-3122520;615604;0;9975
14832975;3020716;8101845;12869884;-5006981;476980;-9301854;0;0;-3116512;615606;0;9975
14841987;3026008;8106041;12880756;-5009508;725793;-9224940;0;0;-3099394;615608;0;9975
14851762;3031921;8112908;12892152;-5013466;1055002;-9235907;0;0;-3081179;615610;0;9975
14858438;3037405;8118535;12902356;-5016708;1344585;-9330559;0;0;-3069019;615612;0;9975
14854862;3034067;8114005;12897731;-5024719;1558256;-9505749;0;0;-3071403;615614;0;9975
14849426;3030968;8111430;12890864;-5026627;1577806;-9506369;0;0;-3084326;615616;0;9975
14843656;3027963;8110953;12883950;-5020714;1338625;-9452868;0;0;-3101063;615618;0;9975
14844133;3030491;8113862;12881471;-5006266;1005029;-9416485;0;0;-3109980;615620;0;9975
14841701;3029871;8112526;12879516;-5000019;700855;-9329606;0;0;-3117990;615622;0;9975
14841987;3030920;8113671;12879659;-4996538;474023;-9319831;0;0;-3120422;615624;0;9975
14842273;3028536;8111525;12880708;-5000448;462865;-9302474;0;0;-3111172;615626;0;9975
14845420;3028822;8110333;12884523;-5005884;679874;-9340144;0;0;-3090429;615628;0;9975
14841606;3023290;8103991;12882472;-5020237;1007127;-9429837;0;0;-3083563;615630;0;9975
14844467;3022385;8105898;12886239;-5031681;1318216;-9531308;0;0;-3079653;615632;0;9975
14857723;3034401;8119154;12900067;-5026293;1545858;-9472657;0;0;-3067589;615634;0;9975
14857341;3036213;8121872;12896348;-5022049;1569795;-9447671;0;0;-3073072;615636;0;9975
14846898;3029489;8114195;12879897;-5018139;1326847;-9467459;0;0;-3092718;615638;0;9975
14835073;3021097;8104945;12865354;-5015230;983381;-9412814;0;0;-3111172;615640;0;9975
14837362;3022814;8109284;12868787;-5006504;669622;-9384823;0;0;-3114271;615642;0;9975
14837886;3023624;8109475;12869454;-5000973;453138;-9371091;0;0;-3110695;615644;0;9975
14836646;3021908;8103180;12867404;-5002546;448894;-9345961;0;0;-3105116;615646;0;9975
14845182;3028583;8107949;12877990;-5003166;695848;-9327126;0;0;-3087473;615648;0;9975
14845754;3028059;8107710;12883950;-5013847;1044798;-9379912;0;0;-3077459;615650;0;9975
14848424;3028107;8108664;12887860;-5025244;1350689;-9395314;0;0;-3072882;615652;0;9975
14852144;3028679;8110953;12888480;-5029392;1531505;-9485388;0;0;-3071451;615654;0;9975
14847280;3025818;8109189;12882615;-5031300;1537275;-9517623;0;0;-3084183;615656;0;9975
14842702;3025150;8108330;12874747;-5023003;1334571;-9426785;0;0;-3097105;615658;0;9975
14837171;3021097;8106614;12866784;-5015326;1003456;-9352255;0;0;-3109550;615660;0;9975
14833738;3017330;8104086;12862350;-5012465;665426;-9399844;0;0;-3112888;615662;0;9975
14832784;3017330;8102513;12861587;-5008888;442791;-9421397;0;0;-3111553;615664;0;9975
14835931;3020239;8102704;12867881;-5004931;422620;-9413767;0;0;-3102779;615666;0;9975
14842368;3024626;8105231;12877036;-5007410;646829;-9469700;0;0;-3091526;615668;0;9975
14841796;3021002;8102322;12876178;-5020237;1000356;-9467889;0;0;-3087330;615670;0;9975
14842655;3018045;8102561;12877179;-5029631;1319790;-9414101;0;0;-3082371;615672;0;9975
14843799;3018570;8104229;12877132;-5035830;1526451;-9485198;0;0;-3081608;615674;0;9975
14837886;3014898;8101225;12870122;-5038929;1533556;-9517241;0;0;-3094625;615676;0;9975
14833165;3013515;8099461;12863923;-5031014;1314163;-9449435;0;0;-3109074;615678;0;9975
14829923;3013658;8100224;12859536;-5020094;978899;-9375048;0;0;-3118086;615680;0;9975
14825059;3009033;8095885;12855912;-5019522;654602;-9352494;0;0;-3125524;615682;0;9975
14831735;3017187;8101416;12861396;-5009699;448274;-9365988;0;0;-3118896;615684;0;9975
14836789;3021288;8103943;12866307;-5005646;442314;-9367610;0;0;-3108787;615686;0;9975
14842845;3025246;8106184;12873126;-5008507;677871;-9396029;0;0;-3096628;615688;0;9975
14849998;3029728;8111907;12883760;-5012083;1030445;-9437562;0;0;-3083181;615690;0;9975
14855529;3032112;8116103;12890388;-5016852;1342249;-9406663;0;0;-3075552;615692;0;9975
14855768;3033542;8116818;12891389;-5019713;1549768;-9466553;0;0;-3074598;615694;0;9975
14849330;3029680;8112288;12882281;-5021381;1548528;-9450865;0;0;-3086853;615696;0;9975
14838840;3021860;8106041;12870217;-5019713;1333141;-9399176;0;0;-3103924;615698;0;9975
14836074;3019428;8105326;12865401;-5011940;1007747;-9396411;0;0;-3114700;615700;0;9975
14834453;3018856;8107710;12864734;-5007696;705146;-9351159;0;0;-3119469;615702;0;9975
14832116;3018188;8105708;12861873;-5006123;485134;-9346343;0;0;-3122282;615704;0;9975
14833118;3017616;8103562;12865497;-5006743;470447;-9342623;0;0;-3115702;615706;0;9975
14837266;3020716;8105851;12873460;-5010843;717449;-9344912;0;0;-3099775;615708;0;9975
14843036;3022861;8107377;12880612;-5017519;1098060;-9308720;0;0;-3088093;615710;0;9975
14845802;3022098;8108712;12883330;-5026436;1435470;-9223796;0;0;-3086233;615712;0;9975
14844467;3020334;8106757;12881137;-5033541;1660156;-9228516;0;0;-3088093;615714;0;9975
14836360;3014994;8101035;12870742;-5039263;1666784;-9206486;0;0;-3101444;615716;0;9975
14828826;3010940;8098078;12861539;-5032873;1394796;-9262705;0;0;-3115845;615718;0;9975
14819862;3003645;8092547;12852622;-5027771;995588;-9428120;0;0;-3129196;615720;0;9975
14814044;2998972;8088923;12847758;-5031157;674390;-9459973;0;0;-3139353;615722;0;9975
14815236;3002214;8088541;12848140;-5025768;467348;-9408999;0;0;-3136062;615724;0;9975
14819480;3006220;8090449;12852574;-5020571;485563;-9345675;0;0;-3121853;615726;0;9975
14822055;3006410;8091116;12859107;-5028439;726938;-9372903;0;0;-3111172;615728;0;9975
14827634;3009558;8092595;12865735;-5036306;1081609;-9416867;0;0;-3100157;615730;0;9975
14828922;3008365;8093310;12868358;-5044842;1409530;-9399844;0;0;-3094339;615732;0;9975
14833309;3011513;8097125;12872983;-5046034;1640558;-9379388;0;0;-3090572;615734;0;9975
14833261;3014755;8100176;12871123;-5042172;1669311;-9349299;0;0;-3097486;615736;0;9975
14823247;3007126;8093310;12858964;-5038929;1452541;-9255839;0;0;-3116417;615738;0;9975
14815999;3001547;8088160;12849237;-5034542;1107406;-9150220;0;0;-3130722;615740;0;9975
14810706;2996826;8085204;12843705;-5033732;773716;-9158898;0;0;-3138256;615742;0;9975
14815141;3001404;8088828;12846948;-5027008;517559;-9312440;0;0;-3132772;615744;0;9975
14824106;3010893;8094120;12858440;-5019188;490808;-9315825;0;0;-3117990;615746;0;9975
14831592;3017568;8096743;12868215;-5018854;716686;-9353972;0;0;-3099966;615748;0;9975
14837695;3021479;8099747;12877275;-5024433;1036977;-9468938;0;0;-3088283;615750;0;9975
14840747;3019762;8099699;12878419;-5033064;1334953;-9492493;0;0;-3084326;615752;0;9975
14834596;3012228;8094502;12871076;-5043936;1538467;-9478617;0;0;-3088760;615754;0;9975
14825250;3004503;8090687;12859870;-5047655;1540565;-9435225;0;0;-3102589;615756;0;9975
14819814;3001785;8089686;12853767;-5041170;1302385;-9411050;0;0;-3117704;615758;0;9975
14821721;3004646;8093358;12852336;-5030108;955486;-9418965;0;0;-3124523;615760;0;9975
14822532;3006649;8095170;12853528;-5021525;646305;-9400082;0;0;-3124905;615762;0;9975
14819623;3006601;8090926;12850572;-5018759;440502;-9367800;0;0;-3128576;615764;0;9975
14821340;3006124;8088971;12852717;-5020428;468826;-9316493;0;0;-3119659;615766;0;9975
14828159;3010082;8092785;12859965;-5020666;714874;-9318782;0;0;-3102159;615768;0;9975
14836503;3015089;8099986;12870217;-5025101;1056432;-9361554;0;0;-3088999;615770;0;9975
14845754;3024387;8109332;12880899;-5027676;1363325;-9362269;0;0;-3078413;615772;0;9975
14846040;3024673;8108426;12880660;-5031395;1562977;-9360839;0;0;-3078031;615774;0;9975
14837171;3017235;8102942;12872649;-5034924;1555109;-9445334;0;0;-3092241;615776;0;9975
14833547;3016138;8101416;12868215;-5027485;1313734;-9463216;0;0;-3104782;615778;0;9975
14831592;3017807;8101273;12864162;-5017805;972175;-9383727;0;0;-3114176;615780;0;9975
14826251;3011989;8096743;12857247;-5017901;649499;-9427596;0;0;-3123093;615782;0;9975
14826347;3012752;8096982;12857438;-5013466;446653;-9395505;0;0;-3123999;615784;0;9975
14828349;3014231;8095170;12861396;-5012941;458574;-9371091;0;0;-3114509;615786;0;9975
14834787;3018999;8099366;12871457;-5015946;688505;-9421206;0;0;-3098965;615788;0;9975
14843179;3024626;8106518;12880660;-5022335;1025772;-9448720;0;0;-3090143;615790;0;9975
14842511;3019667;8103085;12878085;-5033684;1328563;-9469319;0;0;-3091001;615792;0;9975
14842082;3019237;8102274;12877942;-5038786;1549673;-9470416;0;0;-3089857;615794;0;9975
14836170;3018188;8100081;12871028;-5039168;1577520;-9373236;0;0;-3097820;615796;0;9975
14832450;3019285;8101416;12867261;-5029726;1367187;-9306288;0;0;-3107595;615798;0;9975
14827539;3014326;8098269;12860919;-5024719;1014900;-9325076;0;0;-3116989;615800;0;9975
14824821;3009462;8095932;12855054;-5021238;654125;-9408808;0;0;-3123999;615802;0;9975
14822913;3009701;8093262;12853242;-5019283;438547;-9388829;0;0;-3128099;615804;0;9975
14824582;3012562;8092404;12858773;-5017805;450754;-9338856;0;0;-3117895;615806;0;9975
14830638;3014707;8095122;12865831;-5022526;690174;-9359551;0;0;-3103733;615808;0;9975
14834071;3015756;8096314;12871314;-5031061;1043844;-9394932;0;0;-3095722;615810;0;9975
14836360;3015280;8096743;12874890;-5039501;1354122;-9374428;0;0;-3090334;615812;0;9975
14842655;3020048;8101559;12881375;-5039024;1574087;-9424258;0;0;-3084278;615814;0;9975
14839078;3019619;8100033;12875653;-5035353;1586961;-9404994;0;0;-3093386;615816;0;9975
14828731;3012895;8093596;12863589;-5032826;1333570;-9396601;0;0;-3113365;615818;0;9975
14820148;3006935;8087731;12854291;-5029869;976610;-9395266;0;0;-3124666;615820;0;9975
14815999;3004122;8084918;12851192;-5028916;655078;-9384823;0;0;-3128624;615822;0;9975
14815856;3003692;8084727;12850572;-5024958;438165;-9377576;0;0;-3128815;615824;0;9975
14825631;3010893;8092118;12861730;-5020094;441026;-9373236;0;0;-3113937;615826;0;9975
14844371;3026914;8105517;12881089;-5010986;688600;-9358216;0;0;-3087854;615828;0;9975
14849426;3030252;8107329;12885190;-5014706;1044321;-9355164;0;0;-3074026;615830;0;9975
14847947;3025150;8106184;12885619;-5025244;1345586;-9425259;0;0;-3073025;615832;0;9975
14843513;3020525;8101607;12882567;-5034256;1555395;-9521533;0;0;-3078079;615834;0;9975
14835407;3016281;8098031;12872125;-5039263;1556587;-9521580;0;0;-3092003;615836;0;9975
14830161;3013801;8096552;12865258;-5033016;1316785;-9442187;0;0;-3106594;615838;0;9975
14826490;3012800;8095026;12859965;-5023670;982427;-9379388;0;0;-3115320;615840;0;9975
14820243;3007555;8090544;12855579;-5023050;688695;-9298421;0;0;-3122520;615842;0;9975
14821102;3010321;8091879;12857247;-5018568;482225;-9244729;0;0;-3120994;615844;0;9975
14820482;3008985;8089877;12857486;-5019379;478410;-9257508;0;0;-3114462;615846;0;9975
14827586;3012562;8092595;12863971;-5023575;727176;-9306813;0;0;-3098917;615848;0;9975
14838744;3020000;8099080;12875463;-5024529;1059579;-9347821;0;0;-3085470;615850;0;9975
14846612;3026295;8105994;12884618;-5027628;1356315;-9418679;0;0;-3079367;615852;0;9975
14849950;3030443;8108092;12886907;-5030680;1586532;-9412194;0;0;-3079748;615854;0;9975
14843179;3026152;8104277;12877847;-5029631;1596117;-9372998;0;0;-3088570;615856;0;9975
14832259;3018427;8097315;12866927;-5029535;1335668;-9355975;0;0;-3101539;615858;0;9975
14821721;3009748;8089114;12856198;-5030203;982236;-9368468;0;0;-3112173;615860;0;9975
14814664;3002548;8082581;12849904;-5032110;667619;-9427024;0;0;-3120470;615862;0;9975
14812518;3004360;8080483;12848760;-5028725;444316;-9400464;0;0;-3121710;615864;0;9975
14820148;3012228;8085490;12857390;-5019713;456571;-9358168;0;0;-3108120;615866;0;9975
14828016;3016901;8090687;12868024;-5021668;709962;-9354306;0;0;-3092337;615868;0;9975
14827443;3013086;8088732;12868262;-5034828;1059341;-9354401;0;0;-3085565;615870;0;9975
14826967;3009271;8087445;12869645;-5045843;1367855;-9396172;0;0;-3083753;615872;0;9975
14834453;3015995;8093739;12875224;-5043697;1582670;-9424163;0;0;-3077650;615874;0;9975
14826776;3009605;8088398;12865068;-5047226;1573229;-9391499;0;0;-3091764;615876;0;9975
14820005;3006601;8086873;12857772;-5042982;1328516;-9368468;0;0;-3107262;615878;0;9975
14820148;3009271;8088112;12857486;-5030251;1019907;-9259606;0;0;-3111362;615880;0;9975
14815046;3004360;8083058;12852813;-5030346;740289;-9214545;0;0;-3117609;615882;0;9975
14815856;3005648;8085394;12852384;-5024386;510740;-9174872;0;0;-3114796;615884;0;9975
14821483;3008604;8086873;12858964;-5022669;482273;-9167767;0;0;-3103447;615886;0;9975
14825012;3012276;8085871;12864638;-5028200;692939;-9401751;0;0;-3090954;615888;0;9975
14827205;3012466;8086443;12868692;-5034924;1038932;-9549189;0;0;-3084946;615890;0;9975
14829112;3012657;8087111;12870742;-5042553;1361990;-9485198;0;0;-3080559;615892;0;9975
14831401;3013229;8089591;12873221;-5047703;1571941;-9507800;0;0;-3078985;615894;0;9975
14826919;3009271;8087779;12865926;-5046177;1564693;-9512568;0;0;-3089332;615896;0;9975
14814998;2999830;8079720;12851192;-5044556;1319027;-9469224;0;0;-3110885;615898;0;9975
14806415;2994776;8072997;12842942;-5041075;979280;-9418393;0;0;-3126716;615900;0;9975
14809467;2998304;8077288;12846900;-5032873;680637;-9330798;0;0;-3128815;615902;0;9975
14812042;3002453;8081484;12849237;-5027294;489807;-9281350;0;0;-3124380;615904;0;9975
14816238;3005075;8083010;12853671;-5024958;505065;-9286023;0;0;-3112364;615906;0;9975
14821578;3009271;8083868;12861444;-5027437;725174;-9393025;0;0;-3098345;615908;0;9975
14825345;3008652;8084584;12865497;-5037212;1058006;-9402609;0;0;-3089714;615910;0;9975
14827300;3006458;8084488;12866689;-5047989;1363992;-9430552;0;0;-3085899;615912;0;9975
14824487;3003406;8082057;12864305;-5056095;1572323;-9457780;0;0;-3088045;615914;0;9975
14820768;3003788;8082057;12858964;-5053520;1585531;-9392214;0;0;-3098869;615916;0;9975
14823963;3010034;8089734;12859870;-5038071;1364278;-9272433;0;0;-3105068;615918;0;9975
14829208;3016758;8097268;12863685;-5023766;1009893;-9245492;0;0;-3107166;615920;0;9975
14823200;3010034;8093405;12858106;-5025244;680208;-9420682;0;0;-3113794;615922;0;9975
14821102;3010225;8090783;12857104;-5019999;472593;-9387065;0;0;-3112125;615924;0;9975
14822675;3010416;8088065;12857820;-5019236;477504;-9362460;0;0;-3103924;615926;0;9975
14823676;3007936;8085776;12858440;-5028439;735235;-9377242;0;0;-3094721;615928;0;9975
14826537;3007459;8086730;12864066;-5038500;1093101;-9401942;0;0;-3086471;615930;0;9975
14833118;3012371;8092356;12871648;-5042172;1408910;-9374047;0;0;-3080559;615932;0;9975
14832307;3011227;8092118;12870217;-5048895;1619482;-9353543;0;0;-3083563;615934;0;9975
14826537;3008413;8090020;12861444;-5049181;1597166;-9413434;0;0;-3094101;615936;0;9975
14818813;3002930;8085204;12851668;-5044985;1344585;-9397746;0;0;-3109026;615938;0;9975
14810277;2997064;8080149;12843038;-5038738;1014995;-9337044;0;0;-3121090;615940;0;9975
14808751;2993393;8079100;12840177;-5038214;718498;-9300423;0;0;-3126621;615942;0;9975
14812805;2997541;8083296;12842847;-5030584;514411;-9234143;0;0;-3122997;615944;0;9975
14816238;3000593;8083868;12846137;-5028534;534248;-9203578;0;0;-3113031;615946;0;9975
14816381;3000784;8080101;12850572;-5034971;783014;-9289361;0;0;-3102159;615948;0;9975
14819528;2999925;8079005;12855197;-5044508;1124143;-9272719;0;0;-3095722;615950;0;9975
14826013;3004980;8083725;12862588;-5050469;1431226;-9346438;0;0;-3087377;615952;0;9975
14826824;3004980;8084059;12863780;-5055666;1633978;-9428120;0;0;-3088426;615954;0;9975
14820911;3002643;8082343;12856914;-5055285;1629305;-9338952;0;0;-3100443;615956;0;9975
14813091;2997637;8079720;12848331;-5050612;1391554;-9310818;0;0;-3116560;615958;0;9975
14807035;2993154;8076716;12840797;-5045509;1046466;-9254552;0;0;-3128195;615960;0;9975
14804317;2990913;8074427;12839986;-5042601;714349;-9263707;0;0;-3133631;615962;0;9975
14810182;2997398;8079625;12845136;-5034018;525093;-9263659;0;0;-3124428;615964;0;9975
14816142;3005648;8084012;12853051;-5026722;527334;-9292651;0;0;-3109980;615966;0;9975
14821960;3008842;8085537;12859918;-5028248;783825;-9303046;0;0;-3096771;615968;0;9975
14822723;3008032;8084059;12863685;-5038834;1151132;-9298182;0;0;-3091574;615970;0;9975
14827634;3008509;8087206;12867499;-5047751;1457595;-9253359;0;0;-3087091;615972;0;9975
14827110;3007221;8087445;12866212;-5052137;1671934;-9233952;0;0;-3087950;615974;0;9975
14822866;3004980;8083916;12859393;-5051088;1690817;-9198666;0;0;-3098965;615976;0;9975
14812805;2998733;8079482;12848331;-5048370;1438284;-9211636;0;0;-3114986;615978;0;9975
14807369;2994966;8077813;12841416;-5041885;1028394;-9364749;0;0;-3126335;615980;0;9975
14811040;2998161;8081580;12842942;-5033779;678587;-9339858;0;0;-3128624;615982;0;9975
14811946;3001404;8082390;12844039;-5028582;456523;-9411956;0;0;-3126526;615984;0;9975
14818336;3007889;8085680;12853194;-5024195;487995;-9397078;0;0;-3111887;615986;0;9975
14820958;3006267;8082915;12856389;-5030346;768518;-9335614;0;0;-3100014;615988;0;9975
14820577;3001213;8080149;12856675;-5042791;1141214;-9264279;0;0;-3096390;615990;0;9975
14828016;3008222;8086825;12865497;-5045128;1463794;-9298754;0;0;-3086948;615992;0;9975
14829494;3011227;8086825;12867738;-5048466;1617717;-9464837;0;0;-3086042;615994;0;9975
14825202;3010273;8086491;12864305;-5045986;1589155;-9471942;0;0;-3093815;615996;0;9975
14816524;3005314;8082438;12853576;-5043793;1324701;-9428931;0;0;-3110361;615998;0;9975
14810563;2999258;8077574;12845517;-5041313;995779;-9337950;0;0;-3122997;616000;0;9975
14813424;3004074;8081389;12849856;-5032969;700187;-9250594;0;0;-3121662;616002;0;9975
14811136;3002357;8078289;12845803;-5030251;468444;-9266139;0;0;-3120994;616004;0;9975
14811660;3003597;8077956;12849189;-5030680;454950;-9439183;0;0;-3112411;616006;0;9975
14821149;3010702;8084250;12861396;-5029965;706911;-9501410;0;0;-3093767;616008;0;9975
14828779;3013897;8088017;12869788;-5033541;1068925;-9476329;0;0;-3082037;616010;0;9975
14828636;3010988;8086491;12871409;-5044127;1374244;-9471846;0;0;-3080416;616012;0;9975
14827968;3011179;8085871;12870313;-5047321;1574802;-9493542;0;0;-3081560;616014;0;9975
14822151;3005457;8083058;12862063;-5050993;1558113;-9473420;0;0;-3095341;616016;0;9975
14820529;3008747;8086253;12859393;-5042505;1326704;-9393502;0;0;-3103351;616018;0;9975
14815284;3006172;8082295;12852384;-5034542;1006507;-9311486;0;0;-3113603;616020;0;9975
14807369;2999067;8075524;12844945;-5037069;683498;-9276963;0;0;-3122616;616022;0;9975
14808656;3000879;8076764;12845565;-5031633;468158;-9270907;0;0;-3119898;616024;0;9975
14815332;3006172;8081007;12854386;-5026722;479126;-9393263;0;0;-3108358;616026;0;9975
14822294;3012276;8084631;12863256;-5030251;727415;-9391404;0;0;-3093529;616028;0;9975
14828636;3016138;8088255;12870217;-5035734;1082754;-9384919;0;0;-3082561;616030;0;9975
14836265;3021335;8094502;12878610;-5037546;1393842;-9386683;0;0;-3073501;616032;0;9975
14831258;3015900;8090449;12873937;-5045891;1578521;-9456349;0;0;-3078604;616034;0;9975
14824058;3010702;8086157;12863685;-5048561;1555967;-9451819;0;0;-3092766;616036;0;9975
14821245;3009748;8088255;12857009;-5037165;1311302;-9388352;0;0;-3103638;616038;0;9975
14820911;3010082;8089781;12856103;-5027056;978517;-9310532;0;0;-3111076;616040;0;9975
14819671;3009271;8086634;12854863;-5024672;696611;-9223223;0;0;-3114653;616042;0;9975
14819814;3010464;8086539;12855149;-5020142;500869;-9249688;0;0;-3115082;616044;0;9975
14823152;3013277;8087016;12860824;-5018234;488948;-9300423;0;0;-3106165;616046;0;9975
14830257;3017473;8089638;12869741;-5023146;719499;-9351588;0;0;-3089809;616048;0;9975
14838172;3023577;8094502;12876941;-5026531;1067209;-9422923;0;0;-3077221;616050;0;9975
14844085;3027820;8099223;12884332;-5029631;1385116;-9418202;0;0;-3069830;616052;0;9975
14843227;3026628;8097983;12883950;-5035210;1571321;-9439088;0;0;-3069925;616054;0;9975
14835168;3022480;8095456;12875606;-5037356;1550245;-9475327;0;0;-3084469;616056;0;9975
14829065;3020906;8092356;12867356;-5032730;1318550;-9384061;0;0;-3099775;616058;0;9975
14824535;3018141;8089829;12861873;-5024052;990343;-9257365;0;0;-3108072;616060;0;9975
14820052;3014469;8086730;12857963;-5022335;685978;-9265757;0;0;-3114271;616062;0;9975
14817859;3012943;8083678;12856294;-5020189;464344;-9298134;0;0;-3114986;616064;0;9975
14819480;3013706;8083153;12860395;-5021668;464725;-9322549;0;0;-3105020;616066;0;9975
14826013;3018331;8087349;12869073;-5024910;721359;-9391356;0;0;-3090429;616068;0;9975
14826919;3016472;8084250;12869454;-5032873;1094484;-9402848;0;0;-3081655;616070;0;9975
14826871;3013515;8082104;12870313;-5044508;1378488;-9423543;0;0;-3081083;616072;0;9975
14831830;3017473;8087826;12874557;-5047751;1590728;-9405566;0;0;-3082085;616074;0;9975
14832832;3019905;8091736;12873031;-5041552;1576662;-9411288;0;0;-3087282;616076;0;9975
14827873;3019857;8090020;12866307;-5033016;1317072;-9383059;0;0;-3098678;616078;0;9975
14820529;3016281;8085680;12859775;-5027342;970888;-9361601;0;0;-3110266;616080;0;9975
14816285;3010940;8083964;12856484;-5027723;637579;-9420968;0;0;-3115845;616082;0;9975
14812471;3008079;8078480;12849427;-5027723;426006;-9416104;0;0;-3116894;616084;0;9975
14807082;3001499;8069420;12843801;-5033541;461053;-9395791;0;0;-3114271;616086;0;9975
14803602;2995348;8063555;12843801;-5045700;724458;-9347249;0;0;-3106642;616088;0;9975
14804269;2994442;8061505;12846948;-5055952;1082515;-9323025;0;0;-3100824;616090;0;9975
14804365;2991867;8060265;12847806;-5066729;1392173;-9372092;0;0;-3100443;616092;0;9975
14801599;2988243;8057499;12844230;-5073023;1582622;-9380675;0;0;-3103018;616094;0;9975
14801456;2990532;8060360;12843658;-5070210;1560974;-9326363;0;0;-3110456;616096;0;9975
14798786;2990198;8061839;12838317;-5060387;1304054;-9314728;0;0;-3120947;616098;0;9975
14791919;2983904;8057118;12829925;-5057144;924491;-9458972;0;0;-3131866;616100;0;9975
14789201;2982616;8054066;12826634;-5055380;596618;-9515000;0;0;-3141212;616102;0;9975
14787008;2982092;8050490;12822343;-5051899;421428;-9441424;0;0;-3141069;616104;0;9975
14788677;2980947;8048821;12825776;-5051899;440168;-9410000;0;0;-3129291;616106;0;9975
14792110;2978849;8049155;12829829;-5060148;681209;-9446574;0;0;-3117561;616108;0;9975
14797355;2983236;8052874;12837459;-5066013;1022529;-9534455;0;0;-3108787;616110;0;9975
14801456;2984381;8058930;12842132;-5072403;1338339;-9543420;0;0;-3105926;616112;0;9975
14805127;2986812;8062458;12845040;-5075121;1543760;-9497500;0;0;-3106165;616114;0;9975
14804126;2987861;8062792;12841130;-5070686;1525545;-9500552;0;0;-3113174;616116;0;9975
14796687;2983236;8057166;12831641;-5064821;1279831;-9463502;0;0;-3127766;616118;0;9975
14787103;2975178;8051968;12822200;-5064345;931596;-9437228;0;0;-3142786;616120;0;9975
14784099;2974987;8050395;12821961;-5061913;625705;-9384680;0;0;-3146028;616122;0;9975
14787008;2977466;8050585;12824823;-5056906;423383;-9397460;0;0;-3142595;616124;0;9975
14791347;2981949;8051682;12830640;-5054283;448226;-9349967;0;0;-3131151;616126;0;9975
14798166;2986479;8054400;12836696;-5056286;725412;-9362364;0;0;-3119182;616128;0;9975
14799787;2984524;8053017;12838508;-5064917;1063966;-9338952;0;0;-3112745;616130;0;9975
14798499;2979803;8050347;12838365;-5077648;1351022;-9415293;0;0;-3111744;616132;0;9975
14796306;2976608;8049202;12836505;-5088139;1566124;-9447194;0;0;-3117895;616134;0;9975
14791824;2975702;8048773;12831498;-5086660;1567602;-9392548;0;0;-3127766;616136;0;9975
14780141;2970552;8041764;12819482;-5082417;1298713;-9326602;0;0;-3142738;616138;0;9975
14771749;2964878;8035708;12810803;-5078697;919294;-9459687;0;0;-3156662;616140;0;9975
14776994;2969932;8041001;12816716;-5071783;596189;-9472657;0;0;-3156137;616142;0;9975
14779998;2973938;8045006;12820054;-5064154;391769;-9399033;0;0;-3151512;616144;0;9975
14782764;2974129;8045340;12821485;-5062294;414800;-9425259;0;0;-3141689;616146;0;9975
14781667;2969599;8039999;12821199;-5072212;662088;-9474326;0;0;-3134060;616148;0;9975
14786340;2971077;8041668;12827779;-5078983;1016283;-9483624;0;0;-3125143;616150;0;9975
14798070;2980518;8050108;12838937;-5078650;1335764;-9473181;0;0;-3112841;616152;0;9975
14807655;2990436;8058691;12849761;-5074358;1562404;-9427500;0;0;-3106308;616154;0;9975
14801694;2987242;8055926;12841226;-5074835;1529932;-9418107;0;0;-3119039;616156;0;9975
14793159;2981472;8053494;12830831;-5071354;1275539;-9417821;0;0;-3134823;616158;0;9975
14787580;2977037;8050395;12824441;-5067873;931549;-9413052;0;0;-3146648;616160;0;9975
14787103;2977896;8048201;12823344;-5060625;634574;-9351683;0;0;-3147173;616162;0;9975
14786531;2978229;8046246;12821342;-5056429;448226;-9289599;0;0;-3147411;616164;0;9975
14791156;2982330;8049202;12827588;-5055475;503969;-9244633;0;0;-3135633;616166;0;9975
14799453;2987432;8055449;12836505;-5055618;767421;-9278346;0;0;-3120661;616168;0;9975
14800693;2985477;8055115;12838651;-5064345;1071643;-9399272;0;0;-3113222;616170;0;9975
14801027;2983093;8054448;12839700;-5074597;1360464;-9457970;0;0;-3111362;616172;0;9975
14798642;2980566;8054209;12837077;-5082941;1532221;-9513903;0;0;-3113603;616174;0;9975
14792444;2975988;8049012;12827016;-5085373;1501131;-9506131;0;0;-3125286;616176;0;9975
14786817;2972412;8046771;12819148;-5079317;1260805;-9388829;0;0;-3138304;616178;0;9975
14785816;2975511;8049441;12818671;-5068779;919103;-9442521;0;0;-3144550;616180;0;9975
14789630;2977323;8051825;12819911;-5059099;611162;-9404994;0;0;-3146648;616182;0;9975
14786149;2972793;8047867;12815286;-5060768;396299;-9396744;0;0;-3152227;616184;0;9975
14787866;2974939;8047390;12817908;-5059147;426197;-9401179;0;0;-3139782;616186;0;9975
14793016;2978563;8048487;12824918;-5062389;699615;-9393359;0;0;-3124905;616188;0;9975
14798929;2981949;8051062;12832547;-5066872;1073551;-9330321;0;0;-3114319;616190;0;9975
14803554;2983951;8054018;12839271;-5073691;1377582;-9413005;0;0;-3111124;616192;0;9975
14803649;2984905;8054686;12839128;-5079126;1552200;-9505511;0;0;-3112507;616194;0;9975
14796211;2978897;8049822;12829257;-5080223;1488495;-9510708;0;0;-3126097;616196;0;9975
14793207;2978754;8052493;12824489;-5070925;1218605;-9531785;0;0;-3137159;616198;0;9975
14784576;2972174;8046055;12816001;-5069208;883054;-9496642;0;0;-3151417;616200;0;9975
14783336;2971840;8045102;12814714;-5065441;594139;-9391595;0;0;-3153515;616202;0;9975
14785816;2974748;8046437;12816478;-5058670;396633;-9312058;0;0;-3150320;616204;0;9975
14791681;2979469;8049298;12824584;-5054617;406217;-9377099;0;0;-3137112;616206;0;9975
14798642;2985144;8052254;12833119;-5056334;665903;-9520865;0;0;-3123808;616208;0;9975
14805890;2991152;8057833;12843324;-5058622;1054668;-9469844;0;0;-3110218;616210;0;9975
14810134;2991390;8057690;12848760;-5066156;1363468;-9451247;0;0;-3107595;616212;0;9975
14810850;2991009;8058358;12847329;-5070639;1543426;-9409810;0;0;-3107738;616214;0;9975
14802600;2986193;8053208;12837411;-5071449;1494598;-9563256;0;0;-3121519;616216;0;9975
14790202;2975893;8045578;12822057;-5072689;1239061;-9559346;0;0;-3143644;616218;0;9975
14779474;2967501;8037615;12810994;-5073643;895547;-9422732;0;0;-3157711;616220;0;9975
14777805;2965593;8036280;12811471;-5072069;584077;-9364415;0;0;-3163862;616222;0;9975
14779235;2969217;8038235;12814141;-5065918;373506;-9444476;0;0;-3162813;616224;0;9975
14781429;2971363;8038474;12815476;-5065870;395250;-9500266;0;0;-3153515;616226;0;9975
14789010;2974892;8042002;12824918;-5069018;657558;-9478474;0;0;-3137541;616228;0;9975
14798166;2982092;8047677;12835456;-5070877;1001834;-9524775;0;0;-3124285;616230;0;9975
14801074;2983141;8050728;12841035;-5079270;1298713;-9539319;0;0;-3118276;616232;0;9975
14806987;2989435;8055163;12847186;-5075216;1516866;-9527112;0;0;-3112793;616234;0;9975
14805700;2991152;8057881;12844087;-5071068;1509714;-9473992;0;0;-3118801;616236;0;9975
14801980;2991724;8058262;12838269;-5061483;1262092;-9394932;0;0;-3126573;616238;0;9975
14796878;2988815;8053971;12831403;-5053997;917339;-9358359;0;0;-3135776;616240;0;9975
14787866;2979803;8047867;12822820;-5058384;617313;-9318019;0;0;-3148985;616242;0;9975
14789535;2980661;8048916;12822534;-5055285;423812;-9265996;0;0;-3149986;616244;0;9975
14797975;2987242;8052636;12832452;-5048037;462389;-9266759;0;0;-3134537;616246;0;9975
14803840;2991104;8056450;12840653;-5051184;698471;-9359694;0;0;-3119755;616248;0;9975
14807941;2991819;8057213;12843991;-5058289;1047134;-9448672;0;0;-3109121;616250;0;9975
14806606;2989435;8054686;12843610;-5068112;1362180;-9439183;0;0;-3106880;616252;0;9975
14808084;2989960;8056689;12846137;-5072546;1551103;-9475804;0;0;-3106308;616254;0;9975
14804889;2988767;8055974;12839700;-5071831;1535797;-9435893;0;0;-3117323;616256;0;9975
14798833;2985287;8052779;12831117;-5065155;1286268;-9379912;0;0;-3131294;616258;0;9975
14795066;2982044;8051825;12825633;-5060721;915241;-9374905;0;0;-3142214;616260;0;9975
14793397;2980614;8051634;12823630;-5058336;569772;-9470416;0;0;-3147936;616262;0;9975
14794971;2984333;8051873;12825585;-5052376;363969;-9482432;0;0;-3144121;616264;0;9975
14797403;2988958;8052016;12831403;-5048847;425243;-9414626;0;0;-3133106;616266;0;9975
14799787;2988815;8049870;12835027;-5053806;727987;-9315348;0;0;-3122568;616268;0;9975
14802171;2987814;8049679;12838603;-5063439;1093149;-9364081;0;0;-3116369;616270;0;9975
14805032;2986955;8052540;12841989;-5072689;1353025;-9420920;0;0;-3113937;616272;0;9975
14804508;2986860;8050776;12841703;-5076742;1505327;-9577704;0;0;-3113317;616274;0;9975
14795448;2981567;8045340;12831689;-5081225;1500177;-9534455;0;0;-3127146;616276;0;9975
14786531;2977514;8041811;12823678;-5076504;1257085;-9444523;0;0;-3141165;616278;0;9975
14783431;2976274;8041525;12820197;-5069542;891876;-9398652;0;0;-3150177;616280;0;9975
14782144;2975035;8042002;12817527;-5066919;568819;-9438468;0;0;-3153849;616282;0;9975
14781762;2975368;8039999;12816621;-5064726;380420;-9474087;0;0;-3153419;616284;0;9975
14789249;2982569;8042813;12825538;-5058098;418138;-9446955;0;0;-3138924;616286;0;9975
14794542;2984571;8045006;12831975;-5061197;679159;-9462453;0;0;-3125477;616288;0;9975
14792157;2979040;8040762;12832213;-5076599;1019525;-9534932;0;0;-3122616;616290;0;9975
14797784;2982473;8045102;12836457;-5080080;1320982;-9509850;0;0;-3115368;616292;0;9975
14797641;2980375;8044816;12834979;-5085659;1532602;-9540177;0;0;-3118658;616294;0;9975
14790965;2976179;8040953;12826301;-5087710;1519107;-9454966;0;0;-3130245;616296;0;9975
14786245;2971792;8040333;12816812;-5081129;1251840;-9394456;0;0;-3142881;616298;0;9975
14780952;2968693;8039809;12809802;-5075693;874328;-9505892;0;0;-3154707;616300;0;9975
14776183;2965641;8035851;12807895;-5076885;560522;-9510184;0;0;-3158760;616302;0;9975
14774991;2965212;8033467;12807799;-5076742;372457;-9470559;0;0;-3159857;616304;0;9975
14781190;2968550;8035374;12811709;-5072022;420379;-9450770;0;0;-3146314;616306;0;9975
14779760;2966356;8030510;12813474;-5080891;689363;-9438325;0;0;-3137779;616308;0;9975
14779569;2964973;8027840;12815763;-5092859;1034450;-9468318;0;0;-3130770;616310;0;9975
14784290;2969074;8031321;12822343;-5098534;1333475;-9501029;0;0;-3123379;616312;0;9975
14792157;2976990;8038807;12830211;-5094767;1532125;-9528495;0;0;-3115749;616314;0;9975
14795829;2982330;8046055;12831880;-5084324;1517248;-9475947;0;0;-3119993;616316;0;9975
14789726;2977085;8044053;12822295;-5080700;1264667;-9447289;0;0;-3136825;616318;0;9975
14785959;2974176;8042241;12814237;-5074787;920295;-9341002;0;0;-3145695;616320;0;9975
14782478;2970600;8038474;12811376;-5072403;620269;-9319878;0;0;-3150511;616322;0;9975
14779950;2971220;8036614;12811137;-5068350;434303;-9313489;0;0;-3151941;616324;0;9975
14785291;2975511;8039046;12817813;-5065251;467824;-9347010;0;0;-3140306;616326;0;9975
14792062;2980232;8041525;12826348;-5066347;756883;-9356452;0;0;-3126812;616328;0;9975
14797260;2982044;8043337;12830640;-5072689;1101637;-9387684;0;0;-3117275;616330;0;9975
14798690;2982569;8045245;12835170;-5081081;1389217;-9476996;0;0;-3113603;616332;0;9975
14801456;2984333;8048010;12838985;-5084086;1581001;-9449292;0;0;-3111791;616334;0;9975
14794923;2981186;8045054;12830163;-5082607;1563072;-9338141;0;0;-3122902;616336;0;9975
14787580;2976179;8042813;12819959;-5079365;1315069;-9235240;0;0;-3138637;616338;0;9975
14784242;2972650;8042384;12812520;-5074310;975322;-9249068;0;0;-3148460;616340;0;9975
14783288;2973747;8041001;12813474;-5070162;640535;-9294940;0;0;-3150940;616342;0;9975
14788057;2978992;8043814;12819005;-5062771;439453;-9274912;0;0;-3146458;616344;0;9975
14791204;2982044;8046008;12822200;-5059862;492048;-9312201;0;0;-3136206;616346;0;9975
14793207;2980518;8045006;12824966;-5066347;785732;-9258080;0;0;-3125477;616348;0;9975
14796449;2980614;8045817;12831260;-5074120;1117372;-9363366;0;0;-3114700;616350;0;9975
14797117;2977753;8044768;12831832;-5082321;1374149;-9440709;0;0;-3113556;616352;0;9975
14798833;2978945;8046580;12832547;-5085516;1562786;-9491683;0;0;-3115749;616354;0;9975
14796211;2980423;8046675;12828876;-5082655;1521206;-9499694;0;0;-3124046;616356;0;9975
14790250;2977419;8040810;12819959;-5076361;1241684;-9522439;0;0;-3138828;616358;0;9975
14787723;2976084;8040238;12818862;-5070877;914049;-9423972;0;0;-3149128;616360;0;9975
14783574;2973652;8037711;12816144;-5068016;633335;-9340954;0;0;-3154707;616362;0;9975
14784910;2975368;8040238;12816382;-5060721;462198;-9245110;0;0;-3150988;616364;0;9975
14791061;2979421;8043480;12823201;-5058956;485849;-9212065;0;0;-3138924;616366;0;9975
14796926;2983618;8045483;12831260;-5061960;742673;-9380961;0;0;-3123236;616368;0;9975
14799787;2984047;8047486;12836934;-5068255;1093006;-9370948;0;0;-3115511;616370;0;9975
14801647;2982521;8045960;12838555;-5077219;1356887;-9533835;0;0;-3112268;616372;0;9975
14798356;2979803;8044148;12836171;-5083656;1525926;-9644271;0;0;-3114223;616374;0;9975
14796497;2980041;8045006;12832309;-5081749;1488590;-9608126;0;0;-3123855;616376;0;9975
14790059;2975845;8042717;12823535;-5076790;1241350;-9503222;0;0;-3136873;616378;0;9975
14786006;2975035;8040429;12819387;-5070114;915861;-9398080;0;0;-3144836;616380;0;9975
14784051;2974796;8040190;12818624;-5065489;616264;-9359885;0;0;-3148317;616382;0;9975
14784957;2978277;8041907;12819816;-5059576;434827;-9337903;0;0;-3147650;616384;0;9975
14786769;2977657;8040524;12821866;-5060530;466013;-9352446;0;0;-3140259;616386;0;9975
14788247;2975035;8039856;12823440;-5069685;711298;-9423924;0;0;-3129911;616388;0;9975
14795352;2978992;8042574;12831737;-5074883;1051521;-9498454;0;0;-3118133;616390;0;9975
14791871;2974510;8037520;12829114;-5088425;1344299;-9515858;0;0;-3119087;616392;0;9975
14786292;2969551;8033133;12825776;-5097580;1523065;-9543276;0;0;-3123045;616394;0;9975
14782955;2969694;8033514;12820865;-5095816;1478099;-9543133;0;0;-3133678;616396;0;9975
14777471;2967977;8032656;12814571;-5088854;1222324;-9482480;0;0;-3147077;616398;0;9975
14774133;2966118;8031559;12809087;-5081320;874567;-9439994;0;0;-3155088;616400;0;9975
14778425;2968836;8035899;12812091;-5074072;565195;-9426690;0;0;-3156900;616402;0;9975
14790965;2984047;8048010;12824012;-5057669;384426;-9400130;0;0;-3142834;616404;0;9975
14792730;2985668;8048153;12827779;-5056429;427627;-9408141;0;0;-3132200;616406;0;9975
14796497;2986240;8047867;12833119;-5063295;699186;-9428597;0;0;-3118229;616408;0;9975
14801122;2985859;8047963;12837602;-5071116;1062822;-9423257;0;0;-3108597;616410;0;9975
14801551;2982569;8045102;12836600;-5081558;1369476;-9415770;0;0;-3107548;616412;0;9975
14801790;2980900;8046532;12834741;-5085278;1555252;-9437895;0;0;-3109121;616414;0;9975
14804269;2985096;8051348;12836648;-5077219;1511430;-9445906;0;0;-3114271;616416;0;9975
14799405;2984810;8050347;12831355;-5067825;1241207;-9383965;0;0;-3128672;616418;0;9975
14793636;2981615;8048916;12825299;-5062103;882482;-9399987;0;0;-3144026;616420;0;9975
14789058;2974319;8042956;12814475;-5064488;562763;-9459067;0;0;-3155231;616422;0;9975
14785100;2972650;8039713;12812759;-5062819;375318;-9424830;0;0;-3153658;616424;0;9975
14786531;2974462;8039761;12818242;-5063629;429821;-9396601;0;0;-3139305;616426;0;9975
14792968;2979469;8041668;12825681;-5067539;714731;-9452058;0;0;-3115272;616428;0;9975
14797403;2982664;8044386;12833072;-5073357;1063776;-9429312;0;0;-3095960;616430;0;9975
14798738;2982807;8044625;12836028;-5080795;1368999;-9369517;0;0;-3090048;616432;0;9975
14799930;2983999;8046914;12839366;-5085325;1561451;-9417916;0;0;-3091621;616434;0;9975
14798213;2983236;8048439;12835218;-5082703;1542520;-9371615;0;0;-3100920;616436;0;9975
14787914;2977180;8043051;12821723;-5079603;1327562;-9196091;0;0;-3117227;616438;0;9975
14779760;2969217;8036185;12812902;-5077791;979232;-9151030;0;0;-3131246;616440;0;9975
14782287;2971840;8037520;12814904;-5073404;618743;-9209061;0;0;-3135061;616442;0;9975
14788820;2979612;8044529;12822295;-5062437;397253;-9366036;0;0;-3127050;616444;0;9975
14795924;2984810;8048487;12830306;-5058336;419235;-9430743;0;0;-3114509;616446;0;9975
14804269;2991485;8053494;12839128;-5057621;672960;-9588910;0;0;-3097868;616448;0;9975
14810087;2994203;8057070;12846423;-5063486;1043510;-9551860;0;0;-3088999;616450;0;9975
14812566;2992582;8057785;12849523;-5072117;1349163;-9498025;0;0;-3088188;616452;0;9975
14815141;2995682;8059407;12851859;-5074358;1525259;-9507609;0;0;-3088570;616454;0;9975
14811755;2995443;8059073;12846662;-5070734;1467752;-9525014;0;0;-3101253;616456;0;9975
14801217;2988577;8054162;12835885;-5067778;1195812;-9578658;0;0;-3119898;616458;0;9975
14792157;2983951;8047867;12824298;-5066252;866985;-9508134;0;0;-3132200;616460;0;9975
14786197;2979803;8040810;12819959;-5066443;590992;-9427071;0;0;-3137636;616462;0;9975
14785720;2979755;8040429;12820531;-5062866;398063;-9478570;0;0;-3137159;616464;0;9975
14790202;2982759;8042145;12826396;-5060911;408458;-9501982;0;0;-3125810;616466;0;9975
14796926;2988148;8045102;12836267;-5062866;701093;-9409142;0;0;-3108740;616468;0;9975
14799215;2988005;8043814;12840797;-5074930;1070547;-9351779;0;0;-3102064;616470;0;9975
14799072;2986240;8043242;12841607;-5085087;1346779;-9435607;0;0;-3101063;616472;0;9975
14798690;2985525;8043814;12840034;-5090332;1525974;-9550620;0;0;-3106403;616474;0;9975
14799548;2988481;8046961;12837268;-5081844;1499986;-9475041;0;0;-3112602;616476;0;9975
14788200;2980089;8039284;12823630;-5079556;1254224;-9387780;0;0;-3130960;616478;0;9975
14776899;2968359;8029366;12811423;-5082178;902843;-9426261;0;0;-3147697;616480;0;9975
14769508;2964210;8024216;12805654;-5083370;597333;-9423400;0;0;-3153324;616482;0;9975
14775230;2969837;8031083;12811090;-5074597;420236;-9400654;0;0;-3147220;616484;0;9975
14786626;2978277;8038092;12823249;-5067444;481033;-9386969;0;0;-3131962;616486;0;9975
14798166;2986240;8046818;12833787;-5065489;771856;-9350491;0;0;-3112697;616488;0;9975
14804174;2990055;8050490;12841178;-5070257;1136207;-9387351;0;0;-3098249;616490;0;9975
14803840;2988005;8049536;12843038;-5079126;1421880;-9438563;0;0;-3099155;616492;0;9975
14804078;2987909;8050347;12842513;-5083656;1605797;-9459115;0;0;-3101349;616494;0;9975
14794160;2980423;8043290;12828208;-5087185;1569891;-9429551;0;0;-3119612;616496;0;9975
14784433;2974892;8037138;12818004;-5082226;1298237;-9386683;0;0;-3137636;616498;0;9975
14789296;2979660;8045722;12821961;-5069208;945043;-9342862;0;0;-3140259;616500;0;9975
14792491;2983856;8049489;12825204;-5062580;644874;-9316874;0;0;-3140688;616502;0;9975
14791299;2985668;8048153;12824823;-5057955;469064;-9324265;0;0;-3138208;616504;0;9975
14795924;2989483;8047629;12829209;-5054093;539255;-9275723;0;0;-3127146;616506;0;9975
14800836;2990532;8049632;12834598;-5057335;832414;-9266759;0;0;-3117132;616508;0;9975
14806987;2992344;8054114;12840749;-5062103;1205682;-9316874;0;0;-3107834;616510;0;9975
14811899;2995062;8056212;12847854;-5069542;1505613;-9312440;0;0;-3103638;616512;0;9975
14814330;2996254;8058930;12849952;-5073309;1707744;-9291411;0;0;-3104591;616514;0;9975
14810039;2995777;8059693;12843848;-5070019;1665163;-9278727;0;0;-3115320;616516;0;9975
